-5.2018,-3.7115,-2.6567,-1.281,-0.30656,0.12909,0.33545,0.36984,0.45009,0.48448,0.50741,0.50741,0.5418,0.50741,0.5418,0.5418,0.59912,0.59912,0.5762,0.59912,0.59912,0.69084,0.71377,0.74816,0.74816,0.74816,0.71377,0.83988,0.74816,0.78255,0.65645,0.59912,0.50741,0.42716,0.31252,0.27812,0.18641,0.16348,0.071767,0.014445,-0.077269,-0.077269,-0.1002,-0.042877,-0.077269,-0.042877,-0.042877,-0.077269,0.014445,-0.077269,-0.042877,-0.077269,-0.077269,0.014445,0.27812,0.33545,0.48448,0.5762,0.59912,0.48448,0.36984,0.16348,0.048838,-0.077269,-0.15752,-0.1002,-0.077269,-0.28363,-0.34095,-0.36388,-0.36388,-0.30656,-0.34095,-0.28363,-0.30656,-0.28363,-0.24923,-0.28363,-0.19191,0.16348,0.63352,1.1036,1.2755,0.36984,-1.1549,-3.8834,-5.1216,-4.2388,-3.2414,-2.0721,-0.81099,-0.042877,0.18641,0.39277,0.42716,0.48448,0.48448,0.48448,0.48448,0.48448,0.50741,0.48448,0.50741,0.48448,0.5762,0.59912,0.63352,0.65645,0.71377,0.69084,0.74816,0.74816,0.78255,0.74816,0.83988,0.74816,0.78255,0.69084,0.59912,0.50741,0.45009,0.33545,0.27812,0.18641,0.10616,0.071767,0.048838,-0.019948,-0.042877,0.014445,-0.019948,0.014445,-0.077269,-0.042877,-0.042877,0.014445,-0.077269,-0.042877,-0.077269,-0.019948,0.16348,0.33545,0.36984,0.5762,0.63352,0.59912,0.45009,0.24373,0.071767,0.014445,-0.077269,-0.15752,-0.19191,-0.21484,-0.28363,-0.34095,-0.30656,-0.36388,-0.34095,-0.30656,-0.24923,-0.30656,-0.24923,-0.28363,-0.28363,-0.13459,0.39277,0.83988,1.2755,0.92013,-0.019948,-1.946,-4.5598,-5.0872,-3.9178,-2.886,-1.6593,-0.47852,0.071767,0.27812,0.36984,0.48448,0.48448,0.48448,0.50741,0.5418,0.48448,0.5418,0.48448,0.5418,0.5418,0.5418,0.5762,0.5418,0.5762,0.63352,0.69084,0.63352,0.71377,0.65645,0.74816,0.71377,0.80548,0.69084,0.59912,0.5418,0.42716,0.31252,0.2208,0.12909,0.16348,0.071767,-0.042877,-0.019948,-0.042877,0.048838,-0.042877,-0.077269,-0.077269,-0.019948,-0.077269,-0.1002,-0.077269,-0.077269,-0.077269,-0.15752,-0.019948,0.18641,0.31252,0.45009,0.5418,0.5762,0.39277,0.33545,0.048838,-0.1002,-0.15752,-0.19191,-0.21484,-0.24923,-0.36388,-0.4212,-0.39827,-0.4212,-0.36388,-0.4212,-0.36388,-0.39827,-0.34095,-0.36388
-0.27324,-0.25244,0.038772,0.44438,0.89159,1.0268,0.27798,-0.99085,-3.2581,-4.8494,-4.3709,-3.3621,-2.2181,-1.0221,-0.16923,0.20518,0.30918,0.41318,0.44438,0.44438,0.46518,0.49638,0.49638,0.49638,0.54839,0.54839,0.49638,0.57959,0.60039,0.63159,0.60039,0.65239,0.60039,0.70439,0.73559,0.73559,0.73559,0.70439,0.73559,0.68359,0.60039,0.54839,0.49638,0.36118,0.25718,0.22598,0.17398,0.20518,0.069973,0.017972,0.038772,-0.013229,-0.03403,-0.013229,-0.086031,-0.06523,-0.03403,-0.086031,-0.013229,-0.03403,-0.013229,-0.06523,-0.013229,0.15318,0.25718,0.36118,0.49638,0.54839,0.51718,0.39238,0.25718,0.017972,-0.03403,-0.086031,-0.13803,-0.13803,-0.16923,-0.25244,-0.27324,-0.27324,-0.30444,-0.27324,-0.27324,-0.25244,-0.27324,-0.27324,-0.27324,-0.16923,-0.086031,0.34038,0.70439,1.0788,0.76679,-0.25244,-1.8229,-4.2149,-4.8286,-3.8093,-2.8005,-1.5525,-0.46044,0.12197,0.34038,0.39238,0.49638,0.49638,0.54839,0.49638,0.54839,0.54839,0.51718,0.49638,0.57959,0.54839,0.60039,0.54839,0.60039,0.63159,0.60039,0.68359,0.65239,0.68359,0.65239,0.73559,0.73559,0.68359,0.63159,0.65239,0.49638,0.44438,0.27798,0.22598,0.20518,0.12197,0.069973,0.069973,-0.013229,-0.03403,-0.03403,0.017972,-0.06523,-0.013229,-0.03403,-0.013229,-0.03403,-0.06523,-0.06523,-0.03403,-0.03403,0.10117,0.20518,0.30918,0.44438,0.51718,0.60039,0.44438,0.36118,0.10117,-0.03403,-0.06523,-0.13803,-0.13803,-0.086031,-0.27324,-0.27324,-0.32524,-0.30444,-0.27324,-0.30444,-0.27324,-0.22123,-0.25244,-0.22123,-0.25244,-0.20043,0.12197,0.54839,0.9748,1.0788,0.27798,-1.1261,-3.3829,-4.7662,-4.0485,-3.1437,-1.9997,-0.78285,-0.06523,0.25718,0.36118,0.36118,0.46518,0.49638,0.49638,0.49638,0.46518,0.51718,0.49638,0.49638,0.54839,0.57959,0.54839,0.60039,0.63159,0.65239,0.63159,0.68359,0.63159,0.73559,0.70439,0.73559,0.70439,0.68359,0.63159,0.57959,0.49638,0.39238,0.25718,0.22598,0.15318,0.12197,0.038772,0.038772,-0.03403,-0.03403,-0.06523,-0.086031,-0.03403,-0.06523,-0.013229,-0.06523,-0.013229,-0.013229,0.017972,-0.013229,0.038772,0.17398,0.34038,0.39238,0.51718,0.57959,0.51718,0.39238,0.17398,0.017972,-0.03403,-0.13803,-0.086031,-0.13803,-0.20043
-0.23824,-0.27025,-0.29159,-0.29159,-0.23824,-0.29159,-0.29159,-0.27025,-0.23824,-0.23824,-0.23824,-0.046215,0.44453,0.84992,1.1806,0.74324,-0.23824,-2.3186,-4.5269,-4.8256,-3.4921,-2.5106,-1.2731,-0.29159,0.19916,0.30584,0.41252,0.49787,0.55121,0.5192,0.55121,0.55121,0.55121,0.57255,0.55121,0.57255,0.55121,0.60455,0.57255,0.60455,0.63656,0.65789,0.6899,0.71123,0.6899,0.71123,0.74324,0.71123,0.6899,0.65789,0.60455,0.46586,0.41252,0.30584,0.2525,0.14581,0.19916,0.081805,0.0071264,-0.024878,-0.07822,-0.099557,-0.07822,-0.099557,-0.046215,-0.024878,0.0071264,-0.024878,0.0071264,-0.046215,-0.024878,-0.07822,0.16715,0.27383,0.35918,0.46586,0.55121,0.60455,0.41252,0.44453,0.14581,0.060468,-0.07822,-0.046215,-0.099557,-0.1849,-0.27025,-0.23824,-0.29159,-0.27025,-0.27025,-0.23824,-0.27025,-0.23824,-0.23824,-0.27025,-0.23824,-0.16357,0.19916,0.63656,1.042,1.1273,0.14581,-1.3584,-3.9188,-4.7723,-3.8655,-2.916,-1.8278,-0.65431,-0.024878,0.16715,0.35918,0.39119,0.41252,0.44453,0.49787,0.46586,0.44453,0.46586,0.46586,0.5192,0.49787,0.55121,0.55121,0.57255,0.60455,0.63656,0.65789,0.65789,0.65789,0.71123,0.71123,0.74324,0.6899,0.71123,0.60455,0.5192,0.41252,0.39119,0.30584,0.19916,0.14581,0.081805,0.028463,0.0071264,-0.024878,-0.07822,-0.024878,-0.07822,-0.024878,0.028463,0.0071264,0.0071264,0.0071264,-0.046215,-0.046215,-0.024878,0.060468,0.22049,0.35918,0.44453,0.57255,0.60455,0.49787,0.39119,0.19916,0.028463,-0.024878,-0.099557,-0.07822,-0.13156,-0.23824,-0.27025,-0.27025,-0.32359,-0.34493,-0.27025,-0.29159,-0.27025,-0.27025,-0.21691,-0.23824,-0.23824,0.060468,0.5192,0.95661,1.1486,0.41252,-0.78233,-3.0227,-4.7936,-4.3562,-3.3214,-2.2546,-1.0064,-0.1849,0.22049,0.30584,0.39119,0.41252,0.49787,0.5192,0.44453,0.5192,0.55121,0.5192,0.55121,0.55121,0.57255,0.55121,0.57255,0.60455,0.57255,0.63656,0.6899,0.71123,0.6899,0.65789,0.74324,0.76458,0.65789,0.65789,0.55121,0.46586,0.41252,0.30584,0.2525,0.19916,0.14581,0.028463,0.081805,0.028463,0.028463,0.0071264,0.028463,-0.046215,-0.024878,0.028463,0.028463,0.0071264,0.0071264,-0.046215,0.028463,0.060468,0.19916,0.27383,0.44453,0.55121,0.60455
-0.3836,-0.53294,-0.48316,-0.53294,-0.43338,-0.58272,-0.43338,-0.58272,-0.43338,-0.53294,-0.43338,-0.3836,-0.27907,-0.17951,0.28345,0.5871,0.89076,0.68666,0.84098,0.68666,0.38301,0.17891,-0.17951,-0.53294,-0.73704,-0.68726,-0.84158,-0.73704,-0.94114,-1.3493,-1.5534,0.22869,3.4395,5.4307,2.882,0.94552,-0.53294,-1.195,-1.195,-0.94114,-0.89136,-0.99092,-0.78682,-0.89136,-0.68726,-0.73704,-0.53294,-0.58272,-0.43338,-0.32885,-0.12475,-0.22929,-0.025189,-0.025189,0.17891,0.12913,0.33323,0.28345,0.48257,0.53732,0.68666,0.63688,0.74142,0.68666,0.84098,0.94552,1.0949,1.1496,0.94552,1.0451,0.68666,0.48257,0.22869,0.12913,-0.12475,-0.074968,-0.32885,-0.27907,-0.43338,-0.32885,-0.48316,-0.3836,-0.53294,-0.43338,-0.58272,-0.43338,-0.58272,-0.43338,-0.53294,-0.32885,-0.27907,-0.074968,0.024591,0.48257,0.89076,0.9953,0.94552,0.9953,0.89076,0.43279,0.22869,-0.27907,-0.58272,-0.78682,-0.78682,-0.94114,-0.84158,-0.99092,-1.3991,-1.6032,0.17891,3.4395,4.9677,2.424,0.48257,-0.63748,-1.1452,-1.0955,-0.99092,-0.94114,-1.0457,-0.99092,-1.0457,-0.89136,-0.84158,-0.63748,-0.73704,-0.48316,-0.53294,-0.27907,-0.32885,-0.074968,-0.17951,0.079349,0.079349,0.33323,0.33323,0.43279,0.53732,0.43279,0.63688,0.7912,0.84098,0.74142,0.94552,0.89076,1.1496,0.9953,0.89076,0.63688,0.53732,0.22869,0.17891,-0.12475,-0.074968,-0.3836,-0.27907,-0.53294,-0.3836,-0.58272,-0.48316,-0.63748,-0.53294,-0.53294,-0.53294,-0.48316,-0.58272,-0.53294,-0.58272,-0.32885,-0.17951,-0.025189,0.33323,0.84098,0.94552,1.0451,0.94552,0.84098,0.38301,0.22869,-0.22929,-0.53294,-0.78682,-0.73704,-0.94114,-0.84158,-0.94114,-1.3493,-1.7077,-0.43338,2.9317,5.3261,3.0861,0.68666,-0.48316,-1.1452,-1.1452,-0.99092,-0.89136,-1.0457,-0.84158,-0.94114,-0.68726,-0.73704,-0.53294,-0.53294,-0.3836,-0.43338,-0.27907,-0.27907,-0.074968,-0.074968,0.079349,0.12913,0.22869,0.33323,0.43279,0.5871,0.48257,0.68666,0.74142,0.84098,0.74142,0.94552,0.9953,1.1496,1.0451,1.0949,0.68666,0.48257,0.17891,0.079349,-0.22929,-0.22929,-0.3836,-0.27907,-0.48316,-0.3836,-0.53294,-0.48316,-0.53294,-0.43338,-0.53294,-0.58272,-0.48316,-0.53294,-0.48316,-0.58272,-0.3836,-0.32885
-0.083191,0.11392,0.55622,0.84949,0.90237,0.70526,0.84949,0.50815,0.31103,-0.083191,-0.32838,-0.7226,-0.67453,-0.82356,-0.7226,-0.82356,-1.0207,-1.5591,-1.0207,1.7389,5.085,5.2821,1.5899,0.26296,-0.96779,-1.1168,-1.0207,-0.91972,-0.96779,-0.82356,-0.96779,-0.7226,-0.7226,-0.52549,-0.62645,-0.47741,-0.47741,-0.2803,-0.32838,-0.13127,-0.18415,-0.035115,0.012961,-0.035115,0.21007,0.31103,0.40719,0.50815,0.65237,0.55622,0.65237,0.6043,0.84949,0.84949,1.0995,0.95045,0.90237,0.6043,0.45526,0.162,0.11392,-0.18415,-0.13127,-0.38126,-0.32838,-0.52549,-0.47741,-0.57357,-0.47741,-0.42934,-0.52549,-0.42934,-0.62645,-0.52549,-0.62645,-0.57357,-0.67453,-0.52549,-0.52549,-0.2803,-0.23223,0.31103,0.55622,0.90237,0.65237,0.90237,0.6043,0.40719,0.012961,-0.23223,-0.7226,-0.77068,-0.96779,-0.96779,-0.91972,-1.0688,-1.5591,-1.8043,-0.38126,2.8206,4.8879,2.5754,0.40719,-0.62645,-1.1649,-1.2659,-0.96779,-1.0688,-0.96779,-1.0688,-0.87164,-0.91972,-0.7226,-0.7226,-0.57357,-0.52549,-0.42934,-0.32838,-0.38126,-0.23223,-0.083191,-0.035115,-0.083191,0.21007,0.26296,0.35911,0.50815,0.65237,0.6043,0.70526,0.65237,0.80141,0.75333,0.99852,0.95045,1.0995,0.84949,0.80141,0.45526,0.35911,0.012961,-0.035115,-0.2803,-0.32838,-0.47741,-0.52549,-0.42934,-0.57357,-0.47741,-0.57357,-0.47741,-0.57357,-0.52549,-0.52549,-0.42934,-0.62645,-0.47741,-0.42934,-0.18415,-0.13127,0.35911,0.65237,0.99852,0.80141,0.95045,0.80141,0.65237,0.21007,-0.13127,-0.62645,-0.7226,-0.67453,-0.87164,-0.77068,-0.96779,-0.87164,-1.7082,-0.87164,2.0802,5.234,3.3639,1.0995,-0.23223,-1.0207,-1.2178,-0.96779,-1.0688,-0.96779,-0.96779,-0.82356,-0.77068,-0.67453,-0.57357,-0.67453,-0.47741,-0.52549,-0.2803,-0.32838,-0.13127,-0.18415,0.065845,0.012961,0.21007,0.21007,0.40719,0.31103,0.6043,0.6043,0.70526,0.65237,0.84949,0.90237,0.99852,0.99852,1.0995,0.84949,0.70526,0.40719,0.21007,-0.035115,-0.18415,-0.13127,-0.38126,-0.2803,-0.52549,-0.38126,-0.52549,-0.42934,-0.52549,-0.42934,-0.52549,-0.42934,-0.57357,-0.52549,-0.52549,-0.38126,-0.38126,-0.23223,-0.18415,0.26296,0.50815,0.84949,0.70526,0.84949,0.90237,0.6043,0.26296,-0.035115,-0.47741,-0.7226
-0.62664,-0.80791,-0.7637,-0.85212,-0.80791,-1.4843,-0.71507,1.8624,4.714,3.4452,1.3628,0.054202,-0.85212,-1.1262,-0.85212,-0.89633,-0.85212,-0.80791,-0.85212,-0.71507,-0.80791,-0.58243,-0.62664,-0.48959,-0.40117,-0.26412,-0.30833,-0.12706,-0.17569,0.0055706,-0.03864,0.18684,0.18684,0.3681,0.32389,0.50515,0.41231,0.59357,0.54936,0.64221,0.68642,0.86768,0.91189,0.86768,0.77484,0.64221,0.41231,0.18684,0.054202,-0.12706,-0.2199,-0.35696,-0.30833,-0.44538,-0.40117,-0.48959,-0.44538,-0.5338,-0.48959,-0.58243,-0.48959,-0.5338,-0.48959,-0.58243,-0.44538,-0.35696,-0.17569,-0.12706,0.32389,0.59357,0.86768,0.77484,0.73063,0.82347,0.46094,0.14262,-0.26412,-0.5338,-0.7637,-0.71507,-0.85212,-0.80791,-0.89633,-1.2589,-1.533,-0.30833,2.4946,4.714,2.4062,0.50515,-0.5338,-0.98917,-1.1262,-0.89633,-0.98917,-0.89633,-0.85212,-0.89633,-0.67086,-0.71507,-0.5338,-0.58243,-0.44538,-0.48959,-0.26412,-0.2199,-0.03864,-0.082851,0.054202,0.0055706,0.27968,0.18684,0.3681,0.3681,0.54936,0.50515,0.59357,0.64221,0.77484,0.86768,1.0047,1.0047,1.0489,0.91189,0.68642,0.46094,0.23547,0.14262,-0.03864,-0.2199,-0.35696,-0.26412,-0.44538,-0.40117,-0.5338,-0.44538,-0.48959,-0.40117,-0.5338,-0.44538,-0.58243,-0.44538,-0.48959,-0.26412,-0.2199,-0.26412,0.32389,0.77484,0.91189,0.73063,0.86768,0.64221,0.41231,0.098413,-0.26412,-0.67086,-0.67086,-0.80791,-0.7637,-0.85212,-0.80791,-1.4843,-1.5772,-0.17569,3.2197,4.8069,2.6759,0.54936,-0.44538,-1.1262,-1.0334,-0.89633,-0.98917,-0.85212,-0.89633,-0.71507,-0.80791,-0.62664,-0.67086,-0.44538,-0.48959,-0.26412,-0.30833,-0.12706,-0.2199,-0.03864,-0.082851,0.098413,0.098413,0.27968,0.32389,0.46094,0.41231,0.59357,0.64221,0.59357,0.77484,0.86768,0.9561,0.86768,1.0047,0.73063,0.50515,0.27968,0.098413,-0.12706,-0.082851,-0.26412,-0.2199,-0.35696,-0.30833,-0.44538,-0.40117,-0.48959,-0.30833,-0.48959,-0.44538,-0.5338,-0.40117,-0.48959,-0.35696,-0.26412,-0.30833,-0.03864,0.27968,0.59357,0.77484,0.68642,0.64221,0.73063,0.3681,0.18684,-0.30833,-0.5338,-0.71507,-0.67086,-0.80791,-0.7637,-0.89633,-1.3075,-1.4401,0.0055706,3.0384,4.714,2.4946,0.64221,-0.5338,-1.0334,-1.0776,-0.94496
0.086483,0.17681,0.26714,0.41575,0.56435,0.68382,0.77415,0.7421,0.56435,0.32542,0.057345,-0.23987,-0.4788,-0.65946,-0.77893,-0.86635,-0.92754,-0.92754,-0.95668,-0.95668,-0.95668,-0.95668,-0.92754,-0.98581,-1.0179,-1.0179,-1.047,-1.047,-1.0179,-1.047,-1.047,-1.0179,-0.98581,-0.95668,-0.86635,-0.74688,-0.63032,-0.51086,-0.42053,-0.3302,-0.23987,-0.1204,0.11562,0.44489,0.80329,1.0714,1.2812,1.488,1.6396,1.6687,1.5784,1.4589,1.4298,1.488,1.4589,1.3103,1.0714,0.80329,0.53522,0.26714,0.057345,0.028206,0.028206,-0.032985,-0.062123,-0.091262,-0.21073,-0.35934,-0.15245,0.89362,2.8313,4.6816,4.9497,2.7731,0.7421,-0.30106,-0.59827,-0.56913,-0.39139,-0.30106,-0.30106,-0.30106,-0.30106,-0.27192,-0.21073,-0.18159,-0.15245,-0.091262,-0.032985,0.057345,0.17681,0.26714,0.35456,0.44489,0.50608,0.56435,0.62263,0.68382,0.7421,0.83243,0.98103,1.1908,1.4589,1.6978,1.8464,1.9076,1.9368,1.8173,1.6687,1.488,1.3103,1.0714,0.77415,0.47403,0.17681,-0.032985,-0.18159,-0.30106,-0.39139,-0.42053,-0.44967,-0.51086,-0.56913,-0.59827,-0.59827,-0.63032,-0.65946,-0.6886,-0.6886,-0.6886,-0.6886,-0.65946,-0.6886,-0.6886,-0.71774,-0.74688,-0.77893,-0.77893,-0.80807,-0.80807,-0.80807,-0.77893,-0.6886,-0.53999,-0.44967,-0.42053,-0.3302,-0.27192,-0.18159,-0.21073,-0.21073,-0.21073,-0.15245,-0.1204,-0.30106,-0.4788,-0.6886,-0.83721,-0.86635,-0.86635,-0.86635,-0.83721,-0.83721,-0.80807,-0.80807,-0.77893,-0.83721,-0.51086,0.7421,2.8022,4.5622,4.7399,2.234,0.26714,-0.59827,-0.77893,-0.71774,-0.59827,-0.56913,-0.56913,-0.56913,-0.53999,-0.4788,-0.4788,-0.44967,-0.42053,-0.35934,-0.3302,-0.30106,-0.27192,-0.21073,-0.15245,-0.062123,-0.032985,0.028206,0.086483,0.17681,0.26714,0.38661,0.44489,0.50608,0.59349,0.71296,0.83243,0.86157,0.7421,0.59349,0.35456,0.086483,-0.18159,-0.35934,-0.4788,-0.56913,-0.59827,-0.63032,-0.63032,-0.65946,-0.6886,-0.71774,-0.71774,-0.71774,-0.71774,-0.71774,-0.74688,-0.74688,-0.74688,-0.74688,-0.74688,-0.74688,-0.71774,-0.71774,-0.6886,-0.6886,-0.6886,-0.6886,-0.63032,-0.59827,-0.56913,-0.56913,-0.53999,-0.44967,-0.35934,-0.23987,-0.091262,0.028206,0.057345,0.17681,0.26714,0.29628,0.20595
-0.068712,-0.0094483,0.018773,-0.12515,-0.35656,-0.52871,-0.67546,-0.76012,-0.81939,-0.81939,-0.81939,-0.79117,-0.76012,-0.76012,-0.7319,-0.87583,-0.81939,0.018773,1.8672,4.1221,4.9885,3.6028,1.3762,-0.0094483,-0.52871,-0.64442,-0.58798,-0.55975,-0.55975,-0.58798,-0.58798,-0.58798,-0.55975,-0.50049,-0.47227,-0.44405,-0.41301,-0.38479,-0.35656,-0.30012,-0.24086,-0.18442,-0.12515,-0.068712,-0.0094483,0.018773,-0.037669,-0.068712,0.046993,0.13448,0.2784,0.53804,0.79767,0.91337,0.88515,0.71301,0.48159,0.25018,0.046993,-0.15337,-0.35656,-0.47227,-0.47227,-0.41301,-0.44405,-0.50049,-0.6162,-0.7319,-0.76012,-0.64442,-0.52871,-0.50049,-0.47227,-0.64442,-0.87583,-0.99153,-0.96331,-0.96331,-0.90687,-0.87583,-0.87583,-0.90687,-0.93509,-0.90687,-0.84761,-0.76012,-0.7319,-0.70368,-0.64442,-0.64442,-0.64442,-0.64442,-0.6162,-0.52871,-0.38479,-0.24086,-0.15337,-0.096933,0.018773,0.10626,0.13448,0.10626,0.13448,0.19374,0.19374,0.046993,-0.21264,-0.41301,-0.55975,-0.6162,-0.64442,-0.64442,-0.6162,-0.6162,-0.58798,-0.55975,-0.55975,-0.6162,-0.58798,0.046993,1.7233,4.0346,5.3074,4.266,1.9547,0.30663,-0.32834,-0.44405,-0.38479,-0.32834,-0.26908,-0.32834,-0.32834,-0.30012,-0.26908,-0.24086,-0.21264,-0.18442,-0.12515,-0.068712,-0.0094483,0.018773,0.078036,0.13448,0.19374,0.25018,0.30663,0.36589,0.45337,0.53804,0.62552,0.71301,0.79767,0.91337,1.0601,1.1448,1.1758,1.0883,0.88515,0.62552,0.36589,0.13448,-0.0094483,-0.15337,-0.30012,-0.52871,-0.6162,-0.64442,-0.64442,-0.6162,-0.58798,-0.52871,-0.47227,-0.47227,-0.44405,-0.41301,-0.38479,-0.41301,-0.44405,-0.47227,-0.50049,-0.50049,-0.52871,-0.52871,-0.50049,-0.50049,-0.47227,-0.47227,-0.44405,-0.44405,-0.44405,-0.35656,-0.21264,-0.096933,-0.0094483,0.018773,0.10626,0.19374,0.19374,0.1627,0.1627,0.22196,0.2784,0.13448,-0.068712,-0.26908,-0.44405,-0.50049,-0.55975,-0.55975,-0.55975,-0.55975,-0.50049,-0.50049,-0.50049,-0.55975,-0.50049,0.13448,1.7826,3.9189,4.8445,3.6028,1.4355,0.046993,-0.38479,-0.41301,-0.26908,-0.18442,-0.12515,-0.096933,-0.096933,-0.068712,0.018773,0.078036,0.13448,0.19374,0.25018,0.33767,0.42233,0.50982,0.45337,0.36589,0.39411,0.48159,0.50982,0.50982,0.50982,0.56908,0.71301,0.79767
-0.043146,0.021982,0.052996,0.11502,0.11502,0.24218,0.27319,0.40035,0.43446,0.56162,0.68878,0.81283,0.90897,1.0671,1.2284,1.3866,1.5448,1.6068,1.6719,1.6068,1.5448,1.3556,1.0671,0.71979,0.36934,0.052996,-0.1703,-0.35949,-0.51766,-0.64481,-0.70994,-0.77197,-0.80608,-0.80608,-0.80608,-0.80608,-0.80608,-0.74095,-0.74095,-0.64481,-0.64481,-0.6138,-0.58278,-0.51766,-0.48664,-0.48664,-0.51766,-0.48664,-0.42461,-0.29746,-0.20132,-0.10517,-0.043146,-0.1703,-0.20132,-0.23233,-0.26644,-0.20132,-0.29746,-0.45563,-0.67893,-0.74095,-0.77197,-0.74095,-0.70994,-0.74095,-0.48664,0.40035,2.7822,4.7516,1.6068,-1.3767,-2.2327,-1.7272,-0.74095,-0.29746,-0.23233,-0.20132,-0.20132,-0.13929,-0.07416,-0.043146,0.021982,0.11502,0.18015,0.24218,0.33832,0.40035,0.49649,0.59263,0.68878,0.84695,1.0051,1.1013,1.2904,1.4486,1.5448,1.6068,1.5758,1.4486,1.2904,1.0671,0.78182,0.43446,0.11502,-0.1703,-0.3936,-0.55177,-0.70994,-0.77197,-0.8371,-0.86811,-0.86811,-0.89912,-0.89912,-0.8371,-0.80608,-0.80608,-0.77197,-0.70994,-0.67893,-0.64481,-0.64481,-0.6138,-0.58278,-0.55177,-0.55177,-0.48664,-0.3936,-0.23233,-0.1703,-0.13929,-0.20132,-0.26644,-0.29746,-0.32847,-0.23233,-0.32847,-0.48664,-0.67893,-0.80608,-0.80608,-0.77197,-0.67893,-0.77197,-0.48664,0.27319,2.4969,4.8136,2.0224,-1.0914,-2.1707,-2.2017,-0.8371,-0.29746,-0.23233,-0.20132,-0.20132,-0.10517,-0.043146,0.021982,0.11502,0.11502,0.21117,0.30731,0.36934,0.43446,0.52751,0.62365,0.71979,0.81283,0.9741,1.1323,1.2904,1.4486,1.5758,1.6409,1.6719,1.5448,1.3866,1.1633,0.87796,0.52751,0.21117,-0.07416,-0.32847,-0.48664,-0.6138,-0.70994,-0.77197,-0.80608,-0.80608,-0.8371,-0.80608,-0.80608,-0.77197,-0.77197,-0.74095,-0.70994,-0.67893,-0.6138,-0.6138,-0.58278,-0.55177,-0.48664,-0.51766,-0.42461,-0.35949,-0.26644,-0.20132,-0.13929,-0.20132,-0.29746,-0.32847,-0.35949,-0.29746,-0.35949,-0.48664,-0.67893,-0.77197,-0.80608,-0.80608,-0.74095,-0.80608,-0.51766,0.24218,2.4659,4.8136,2.0224,-1.1534,-2.2017,-2.2327,-0.8371,-0.35949,-0.26644,-0.26644,-0.20132,-0.20132,-0.13929,-0.043146,0.052996,0.11502,0.14604,0.24218,0.27319,0.36934,0.49649,0.56162,0.7508,0.81283
0.92732,1.0153,1.197,1.3172,1.3758,1.4051,1.4051,1.3465,1.1354,0.92732,0.65766,0.32644,-0.0047719,-0.24512,-0.45323,-0.63496,-0.69358,-0.78445,-0.87531,-0.93394,-0.99549,-0.99549,-0.90462,-0.90462,-0.87531,-0.84307,-0.84307,-0.81376,-0.78445,-0.7229,-0.69358,-0.66427,-0.7229,-0.66427,-0.57341,-0.57341,-0.45323,-0.3653,-0.27443,-0.33306,-0.39461,-0.45323,-0.42392,-0.45323,-0.39461,-0.45323,-0.60272,-0.84307,-0.90462,-0.90462,-0.75514,-0.84307,-0.90462,-0.57341,0.38507,2.7857,4.1984,1.2556,-1.4439,-2.165,-1.655,-0.78445,-0.45323,-0.3653,-0.30375,-0.27443,-0.24512,-0.18357,-0.15426,-0.063394,0.02747,0.086093,0.14472,0.23558,0.32644,0.38507,0.50524,0.5668,0.77491,0.92732,1.1354,1.2263,1.3465,1.5253,1.5575,1.4373,1.3758,1.197,0.95663,0.62542,0.35576,0.056782,-0.18357,-0.33306,-0.48254,-0.60272,-0.69358,-0.78445,-0.84307,-0.87531,-0.87531,-0.87531,-0.81376,-0.75514,-0.75514,-0.69358,-0.63496,-0.60272,-0.57341,-0.51479,-0.45323,-0.45323,-0.42392,-0.33306,-0.24512,-0.15426,-0.092705,-0.034083,-0.034083,-0.15426,-0.12495,-0.15426,-0.063394,-0.15426,-0.21288,-0.42392,-0.57341,-0.57341,-0.57341,-0.57341,-0.60272,-0.5441,0.056782,1.5868,4.4681,4.5267,-0.12495,-1.7429,-1.9247,-0.96325,-0.3653,-0.21288,-0.18357,-0.18357,-0.12495,-0.063394,-0.0047719,0.056782,0.1154,0.17696,0.20627,0.23558,0.35576,0.44662,0.53748,0.65766,0.74559,0.86577,1.0153,1.197,1.2879,1.4051,1.4666,1.496,1.4373,1.2879,1.0768,0.77491,0.41731,0.14472,-0.15426,-0.3653,-0.48254,-0.63496,-0.7229,-0.78445,-0.84307,-0.84307,-0.87531,-0.81376,-0.84307,-0.81376,-0.75514,-0.75514,-0.69358,-0.69358,-0.66427,-0.66427,-0.63496,-0.60272,-0.60272,-0.57341,-0.51479,-0.42392,-0.33306,-0.27443,-0.18357,-0.21288,-0.33306,-0.39461,-0.39461,-0.33306,-0.3653,-0.48254,-0.69358,-0.81376,-0.81376,-0.84307,-0.78445,-0.84307,-0.69358,-0.092705,1.5575,4.3772,2.6977,-0.51479,-2.0741,-2.1943,-1.0541,-0.42392,-0.30375,-0.27443,-0.24512,-0.21288,-0.18357,-0.092705,-0.0047719,0.056782,0.086093,0.14472,0.23558,0.32644,0.44662,0.53748,0.59611,0.71628,0.83646,0.98595,1.1677,1.3172,1.4373,1.496,1.5253,1.496,1.3465,1.1061,0.83646,0.53748,0.26489,-0.034083
-0.19345,-0.37875,-0.53367,-0.59746,-0.68859,-0.72201,-0.72201,-0.81314,-0.78276,-0.75239,-0.72201,-0.65822,-0.59746,-0.56405,-0.56405,-0.53367,-0.53367,-0.5033,-0.47292,-0.40913,-0.4395,-0.318,-0.22383,-0.099284,-0.0051155,-0.035492,-0.16004,-0.19345,-0.22383,-0.19345,-0.19345,-0.28458,-0.47292,-0.65822,-0.72201,-0.72201,-0.65822,-0.65822,-0.62784,-0.19345,1.052,3.9135,4.8461,0.55382,-1.7457,-2.089,-1.3113,-0.5033,-0.25421,-0.22383,-0.16004,-0.12966,-0.068907,0.025261,0.055638,0.11943,0.18018,0.27435,0.3351,0.45965,0.55382,0.61761,0.74215,0.83328,0.98821,1.1128,1.3011,1.4256,1.5502,1.6413,1.7051,1.6109,1.5168,1.3011,1.052,0.70874,0.36852,0.089053,-0.16004,-0.318,-0.4395,-0.56405,-0.62784,-0.72201,-0.72201,-0.75239,-0.75239,-0.72201,-0.72201,-0.72201,-0.68859,-0.62784,-0.62784,-0.56405,-0.53367,-0.5033,-0.47292,-0.4395,-0.40913,-0.37875,-0.28458,-0.16004,-0.068907,-0.035492,-0.12966,-0.19345,-0.22383,-0.22383,-0.19345,-0.28458,-0.40913,-0.56405,-0.68859,-0.68859,-0.68859,-0.65822,-0.65822,-0.40913,0.3351,2.6984,4.8157,2.0149,-1.1868,-2.1193,-1.7457,-0.75239,-0.28458,-0.22383,-0.16004,-0.099284,-0.035492,0.025261,0.089053,0.14981,0.18018,0.24397,0.30473,0.3989,0.45965,0.55382,0.61761,0.74215,0.86366,1.0216,1.2069,1.3618,1.4864,1.6109,1.6413,1.6747,1.6109,1.456,1.1765,0.89708,0.55382,0.24397,-0.0051155,-0.25421,-0.40913,-0.5033,-0.56405,-0.65822,-0.72201,-0.72201,-0.75239,-0.75239,-0.72201,-0.72201,-0.62784,-0.62784,-0.56405,-0.56405,-0.5033,-0.47292,-0.4395,-0.40913,-0.4395,-0.40913,-0.28458,-0.12966,-0.068907,-0.0051155,-0.068907,-0.19345,-0.25421,-0.28458,-0.28458,-0.318,-0.4395,-0.72201,-0.81314,-0.84655,-0.81314,-0.78276,-0.78276,-0.59746,-0.0051155,2.0484,4.6577,2.419,-0.9711,-2.2135,-2.2773,-0.93768,-0.4395,-0.28458,-0.28458,-0.22383,-0.16004,-0.12966,-0.12966,0.025261,0.11943,0.14981,0.18018,0.30473,0.36852,0.45965,0.58419,0.64799,0.74215,0.95783,1.0824,1.2373,1.3315,1.456,1.5502,1.5806,1.4864,1.3618,1.1765,0.80291,0.49306,0.21056,-0.068907,-0.318,-0.47292,-0.56405,-0.65822,-0.75239,-0.81314,-0.81314,-0.75239,-0.72201,-0.78276,-0.84655,-0.78276,-0.68859,-0.62784,-0.59746
5.2674,2.4928,-0.54411,-1.6819,-1.8558,-0.74657,-0.36731,-0.2504,-0.2504,-0.2504,-0.2504,-0.22189,-0.19337,-0.16485,-0.10497,-0.076456,-0.016573,0.068973,0.15737,0.2144,0.33132,0.41971,0.53663,0.71057,0.88737,1.0613,1.2666,1.4406,1.6174,1.7058,1.7343,1.6174,1.4719,1.2096,0.85885,0.50811,0.18589,-0.10497,-0.28177,-0.48423,-0.60114,-0.68954,-0.77794,-0.77794,-0.77794,-0.77794,-0.80645,-0.77794,-0.77794,-0.71806,-0.68954,-0.62966,-0.62966,-0.57263,-0.51274,-0.48423,-0.51274,-0.48423,-0.48423,-0.48423,-0.48423,-0.48423,-0.48423,-0.45571,-0.45571,-0.4272,-0.45571,-0.4272,-0.36731,-0.28177,-0.13349,-0.04794,0.068973,0.068973,-0.04794,-0.04794,-0.076456,-0.04794,-0.076456,-0.22189,-0.48423,-0.62966,-0.66102,-0.66102,-0.62966,-0.66102,-0.10497,1.2096,4.1267,5.179,1.2951,-1.1258,-1.8872,-1.4481,-0.66102,-0.36731,-0.31028,-0.2504,-0.2504,-0.22189,-0.16485,-0.13349,-0.076456,-0.04794,-0.016573,0.068973,0.097489,0.18589,0.27429,0.36268,0.4796,0.62503,0.77046,0.97577,1.1212,1.3237,1.4719,1.6174,1.7058,1.7058,1.5889,1.4121,1.1212,0.79897,0.41971,0.15737,-0.10497,-0.31028,-0.4272,-0.57263,-0.62966,-0.68954,-0.74657,-0.74657,-0.74657,-0.74657,-0.74657,-0.71806,-0.66102,-0.66102,-0.62966,-0.60114,-0.57263,-0.51274,-0.51274,-0.48423,-0.45571,-0.4272,-0.45571,-0.4272,-0.4272,-0.45571,-0.4272,-0.4272,-0.4272,-0.39868,-0.4272,-0.39868,-0.36731,-0.2504,-0.13349,-0.04794,0.068973,0.040458,-0.076456,-0.076456,-0.076456,0.011942,-0.10497,-0.3388,-0.54411,-0.60114,-0.62966,-0.62966,-0.62966,-0.31028,0.59651,2.9319,5.1191,2.3759,-0.54411,-1.7389,-1.9157,-0.83497,-0.3388,-0.22189,-0.22189,-0.22189,-0.16485,-0.19337,-0.19337,-0.16485,-0.076456,-0.04794,0.011942,0.068973,0.12886,0.18589,0.3028,0.41971,0.59651,0.68206,0.85885,1.0927,1.2666,1.3835,1.5005,1.6174,1.6744,1.5889,1.4406,1.2381,0.82749,0.44823,0.15737,-0.016573,-0.28177,-0.48423,-0.60114,-0.66102,-0.62966,-0.77794,-0.77794,-0.77794,-0.80645,-0.80645,-0.74657,-0.71806,-0.77794,-0.68954,-0.62966,-0.66102,-0.62966,-0.62966,-0.60114,-0.51274,-0.45571,-0.45571,-0.48423,-0.51274,-0.45571,-0.48423,-0.45571,-0.4272,-0.48423,-0.48423,-0.4272,-0.39868,-0.36731,-0.22189
-0.063428,-0.063428,-0.063428,-0.063428,-0.063428,-0.063428,-0.063428,-0.063428,-0.063428,-0.063428,-0.091709,-0.091709,-0.091709,-0.063428,-0.063428,-0.035147,-0.0040385,0.052523,0.16847,0.28443,0.34382,0.3721,0.22786,0.19676,0.28443,0.31271,0.19676,-0.035147,-0.23594,-0.35189,-0.38017,-0.43956,-0.49613,0.080804,1.4128,4.3965,5.3806,1.5599,-0.8157,-1.6274,-1.2201,-0.43956,-0.14827,-0.11999,-0.091709,-0.091709,-0.063428,-0.063428,-0.063428,-0.035147,-0.0040385,-0.0040385,0.052523,0.19676,0.19676,0.22786,0.34382,0.45977,0.54461,0.66056,0.8359,1.0084,1.1244,1.2969,1.4439,1.5882,1.5882,1.5882,1.5288,1.3846,1.0961,0.8359,0.51633,0.25615,-0.0040385,-0.23594,-0.43956,-0.55552,-0.61208,-0.69975,-0.78742,-0.8157,-0.69975,-0.75631,-0.78742,-0.75631,-0.67147,-0.61208,-0.64036,-0.61208,-0.61208,-0.5838,-0.49613,-0.52723,-0.49613,-0.46784,-0.46784,-0.49613,-0.49613,-0.43956,-0.41128,-0.49613,-0.52723,-0.52723,-0.55552,-0.49613,-0.46784,-0.38017,-0.32361,-0.23594,-0.091709,-0.035147,-0.091709,-0.17938,-0.091709,0.024242,-0.11999,-0.35189,-0.5838,-0.67147,-0.78742,-0.75631,-0.84398,-0.49613,0.54461,3.121,4.9762,2.2245,-0.55552,-1.7433,-1.9724,-0.93165,-0.49613,-0.46784,-0.43956,-0.41128,-0.32361,-0.29533,-0.35189,-0.26422,-0.20766,-0.17938,-0.11999,-0.091709,-0.035147,0.052523,0.14019,0.25615,0.40038,0.51633,0.71995,0.86418,1.0961,1.2403,1.4128,1.5005,1.4722,1.3846,1.212,0.92075,0.57289,0.25615,-0.063428,-0.32361,-0.52723,-0.67147,-0.78742,-0.90337,-1.0193,-1.0193,-1.0476,-1.0759,-1.0476,-1.0193,-1.0193,-0.98821,-0.93165,-0.87226,-0.8157,-0.75631,-0.69975,-0.64036,-0.61208,-0.5838,-0.55552,-0.5838,-0.55552,-0.52723,-0.52723,-0.55552,-0.55552,-0.5838,-0.55552,-0.5838,-0.55552,-0.55552,-0.52723,-0.49613,-0.38017,-0.26422,-0.14827,-0.091709,-0.17938,-0.20766,-0.11999,-0.091709,-0.20766,-0.46784,-0.67147,-0.78742,-0.8157,-0.8157,-0.84398,-0.43956,0.68884,3.5565,4.9168,1.8201,-0.87226,-1.8282,-1.8875,-0.84398,-0.52723,-0.46784,-0.46784,-0.46784,-0.43956,-0.41128,-0.38017,-0.35189,-0.32361,-0.23594,-0.20766,-0.14827,-0.063428,-0.0040385,0.11191,0.19676,0.34382,0.45977,0.63228,0.8359,1.0367,1.2403,1.3846,1.4439,1.4439,1.3846,1.212,0.92075
0.69796,0.56144,0.56144,0.36192,0.16239,0.088883,0.025875,0.025875,0.088883,0.088883,0.16239,0.16239,0.16239,0.63495,1.8531,3.5543,4.8355,4.2264,1.9896,-0.24716,-1.6018,-2.0744,-2.1479,-1.8118,-1.2658,-0.65671,-0.31017,-0.11064,-0.047634,-0.047634,-0.047634,-0.047634,-0.047634,-0.047634,-0.11064,-0.11064,-0.11064,-0.11064,-0.18415,-0.18415,-0.24716,-0.31017,-0.31017,-0.31017,-0.31017,-0.18415,-0.18415,-0.11064,0.025875,0.16239,0.29891,0.36192,0.43543,0.43543,0.36192,0.36192,0.29891,0.2254,0.2254,0.2254,0.2254,0.2254,0.16239,0.16239,0.16239,0.16239,0.088883,0.088883,0.088883,0.025875,0.088883,0.088883,0.088883,0.088883,0.088883,0.088883,0.088883,0.088883,0.16239,0.2254,0.43543,0.63495,0.83447,0.97099,1.0445,0.77147,0.56144,0.49843,0.43543,0.2254,-0.047634,-0.11064,-0.18415,-0.24716,-0.31017,-0.31017,-0.24716,-0.18415,-0.18415,0.56144,1.8531,3.6173,4.6359,3.4808,1.0445,-0.99275,-2.1479,-2.5574,-2.4839,-2.0744,-1.4653,-0.92974,-0.5832,-0.44668,-0.38367,-0.38367,-0.31017,-0.31017,-0.31017,-0.31017,-0.38367,-0.38367,-0.38367,-0.44668,-0.44668,-0.44668,-0.44668,-0.44668,-0.44668,-0.44668,-0.44668,-0.38367,-0.31017,-0.18415,-0.047634,0.088883,0.2254,0.29891,0.36192,0.36192,0.29891,0.2254,0.16239,0.16239,0.16239,0.16239,0.16239,0.16239,0.088883,0.088883,0.025875,0.025875,-0.047634,-0.047634,-0.047634,0.025875,0.025875,0.025875,0.088883,0.088883,0.088883,0.088883,0.088883,0.088883,0.16239,0.36192,0.49843,0.69796,0.90798,0.97099,0.69796,0.43543,0.36192,0.2254,0.025875,-0.18415,-0.38367,-0.38367,-0.38367,-0.38367,-0.31017,-0.31017,-0.38367,-0.38367,0.2254,1.5171,3.1448,4.1634,3.2078,0.90798,-1.0663,-2.1479,-2.4839,-2.4209,-2.0744,-1.5388,-1.0663,-0.79323,-0.65671,-0.52019,-0.5832,-0.65671,-0.65671,-0.5832,-0.5832,-0.52019,-0.52019,-0.5832,-0.65671,-0.65671,-0.65671,-0.65671,-0.65671,-0.65671,-0.65671,-0.65671,-0.5832,-0.52019,-0.44668,-0.44668,-0.38367,-0.18415,-0.11064,-0.11064,-0.047634,-0.11064,-0.047634,-0.11064,-0.18415,-0.11064,-0.11064,-0.11064,-0.18415,-0.18415,-0.24716,-0.18415,-0.18415,-0.24716,-0.24716,-0.18415,-0.11064,-0.11064,-0.047634,-0.047634,-0.047634,-0.047634,-0.047634,-0.047634,0.088883,0.16239
0.15061,0.36497,0.63293,0.77226,0.70795,0.49359,0.36497,0.28995,0.15061,0.011275,-0.19237,-0.2674,-0.2674,-0.3317,-0.3317,-0.2674,-0.2674,-0.2674,-0.053033,0.77226,2.1656,3.6876,4.1699,2.5729,0.28995,-1.2963,-2.0573,-2.1323,-2.0573,-1.7143,-1.1677,-0.67468,-0.47104,-0.3317,-0.2674,-0.19237,-0.19237,-0.19237,-0.19237,-0.19237,-0.19237,-0.19237,-0.19237,-0.19237,-0.19237,-0.19237,-0.19237,-0.19237,-0.19237,-0.19237,-0.12806,-0.053033,0.011275,0.15061,0.28995,0.36497,0.42928,0.49359,0.49359,0.49359,0.49359,0.42928,0.36497,0.36497,0.28995,0.28995,0.22564,0.22564,0.22564,0.22564,0.22564,0.22564,0.15061,0.15061,0.086302,0.086302,0.086302,0.086302,0.15061,0.22564,0.28995,0.28995,0.22564,0.22564,0.28995,0.28995,0.36497,0.56862,0.84729,1.0509,1.0509,0.9116,0.70795,0.49359,0.49359,0.36497,0.086302,-0.053033,-0.12806,-0.19237,-0.19237,-0.19237,-0.19237,-0.2674,-0.2674,0.22564,1.4689,3.1302,4.6522,4.7165,1.9513,-0.39601,-1.8537,-2.411,-2.5504,-2.1967,-1.7143,-1.0927,-0.67468,-0.47104,-0.39601,-0.39601,-0.39601,-0.3317,-0.2674,-0.2674,-0.3317,-0.3317,-0.39601,-0.39601,-0.47104,-0.47104,-0.39601,-0.39601,-0.39601,-0.39601,-0.39601,-0.39601,-0.3317,-0.19237,-0.12806,0.086302,0.15061,0.28995,0.36497,0.28995,0.28995,0.22564,0.15061,0.15061,0.15061,0.15061,0.086302,0.086302,0.086302,0.086302,0.086302,0.086302,0.086302,0.086302,0.011275,0.011275,0.011275,0.011275,0.011275,0.011275,0.011275,0.011275,0.011275,0.086302,0.15061,0.28995,0.42928,0.63293,0.77226,0.84729,0.9116,0.63293,0.42928,0.36497,0.22564,-0.053033,-0.2674,-0.3317,-0.39601,-0.39601,-0.39601,-0.39601,-0.39601,-0.39601,-0.12806,0.77226,2.2942,3.8912,4.3092,2.4336,-0.12806,-1.65,-2.411,-2.5504,-2.411,-1.993,-1.3714,-0.88905,-0.61038,-0.53535,-0.53535,-0.53535,-0.53535,-0.53535,-0.53535,-0.61038,-0.61038,-0.61038,-0.53535,-0.47104,-0.53535,-0.61038,-0.67468,-0.74971,-0.67468,-0.61038,-0.53535,-0.53535,-0.47104,-0.39601,-0.2674,-0.19237,-0.053033,0.011275,0.086302,0.011275,-0.053033,-0.12806,-0.12806,-0.12806,-0.12806,-0.12806,-0.12806,-0.12806,-0.12806,-0.19237,-0.19237,-0.19237,-0.19237,-0.2674,-0.2674,-0.2674,-0.19237,-0.12806
-0.051598,-0.051598,-0.051598,-0.051598,0.022053,0.085182,0.15883,0.35874,0.55865,0.69543,0.83221,0.76908,0.49552,0.35874,0.29561,0.15883,-0.051598,-0.18838,-0.18838,-0.18838,-0.18838,-0.18838,-0.18838,-0.11473,-0.11473,0.22196,1.2426,2.8103,4.3675,4.7778,2.5998,0.22196,-1.4089,-2.0823,-2.1559,-2.0191,-1.6088,-0.99854,-0.52507,-0.31464,-0.18838,-0.18838,-0.18838,-0.11473,-0.11473,-0.11473,-0.11473,-0.11473,-0.18838,-0.18838,-0.18838,-0.18838,-0.18838,-0.18838,-0.18838,-0.25151,-0.18838,-0.11473,-0.051598,-0.051598,0.085182,0.22196,0.35874,0.43239,0.49552,0.49552,0.43239,0.35874,0.35874,0.35874,0.22196,0.15883,0.15883,0.085182,0.085182,0.022053,0.022053,0.022053,0.085182,0.022053,-0.051598,-0.051598,-0.051598,-0.051598,0.022053,0.022053,0.022053,0.022053,0.085182,0.085182,0.085182,0.085182,0.22196,0.49552,0.69543,0.96899,1.0426,0.83221,0.55865,0.43239,0.43239,0.22196,-0.051598,-0.11473,-0.18838,-0.18838,-0.18838,-0.25151,-0.25151,-0.18838,-0.18838,0.15883,1.3162,2.947,4.5042,4.7041,2.2,-0.18838,-1.7456,-2.3558,-2.4926,-2.2927,-1.7456,-1.1984,-0.72498,-0.52507,-0.38829,-0.31464,-0.38829,-0.38829,-0.38829,-0.38829,-0.31464,-0.31464,-0.31464,-0.31464,-0.25151,-0.31464,-0.38829,-0.38829,-0.31464,-0.38829,-0.31464,-0.31464,-0.25151,-0.11473,-0.051598,0.085182,0.15883,0.22196,0.35874,0.35874,0.29561,0.22196,0.15883,0.15883,0.085182,0.085182,0.085182,0.085182,0.085182,0.022053,-0.051598,-0.051598,-0.051598,-0.051598,-0.051598,-0.11473,-0.11473,-0.051598,-0.051598,-0.11473,-0.11473,-0.11473,-0.051598,-0.11473,-0.051598,0.15883,0.43239,0.55865,0.76908,0.83221,0.69543,0.49552,0.35874,0.35874,0.22196,-0.11473,-0.31464,-0.45142,-0.45142,-0.45142,-0.45142,-0.45142,-0.45142,-0.45142,-0.18838,0.76908,2.3263,3.8309,4.1675,2.0632,-0.25151,-1.7456,-2.2927,-2.2927,-2.0823,-1.6824,-1.1353,-0.79863,-0.5882,-0.45142,-0.45142,-0.45142,-0.45142,-0.45142,-0.45142,-0.45142,-0.45142,-0.52507,-0.5882,-0.5882,-0.52507,-0.45142,-0.5882,-0.66185,-0.72498,-0.66185,-0.66185,-0.5882,-0.52507,-0.45142,-0.31464,-0.18838,-0.11473,-0.051598,-0.051598,-0.051598,-0.051598,0.022053,0.022053,-0.051598,-0.051598,-0.11473,-0.11473,-0.11473,-0.11473,-0.11473,-0.11473,-0.11473
-0.51834,-0.50265,-0.48696,-0.50265,-0.48696,-0.47127,-0.47127,-0.47127,-0.43832,-0.42263,-0.42263,-0.40694,-0.40694,-0.38968,-0.40694,-0.40694,-0.38968,-0.40694,-0.42263,-0.42263,-0.42263,-0.38968,-0.32534,-0.24532,-0.19824,-0.085266,-0.069575,-0.036623,-0.020932,-0.020932,-0.020932,-0.052315,-0.085266,-0.10096,-0.11665,-0.13391,-0.11665,-0.13391,-0.085266,-0.052315,-0.020932,0.043402,0.074784,0.12343,0.15638,0.17207,0.20345,0.26779,0.34938,0.42941,0.46079,0.4451,0.50943,0.49374,0.50943,0.42941,0.39645,0.33212,0.26779,0.17207,0.092045,0.027711,-0.020932,-0.069575,-0.069575,-0.036623,-0.10096,0.012019,0.70243,2.4206,4.8794,4.8794,3.4657,-0.18098,-1.5461,-1.5461,-1.5304,-0.92004,-0.69565,-0.63132,-0.63132,-0.58268,-0.59837,-0.61563,-0.56699,-0.58268,-0.5513,-0.58268,-0.5513,-0.5513,-0.5513,-0.51834,-0.5356,-0.5356,-0.48696,-0.51834,-0.48696,-0.43832,-0.47127,-0.45401,-0.47127,-0.48696,-0.48696,-0.47127,-0.47127,-0.48696,-0.51834,-0.38968,-0.3426,-0.26101,-0.24532,-0.1496,-0.11665,-0.069575,-0.085266,-0.069575,-0.052315,-0.10096,-0.13391,-0.18098,-0.1496,-0.16529,-0.1496,-0.13391,-0.11665,-0.036623,0.027711,0.059093,0.074784,0.12343,0.13912,0.20345,0.22071,0.28505,0.41215,0.42941,0.39645,0.42941,0.46079,0.42941,0.4451,0.38076,0.28505,0.20345,0.10774,0.059093,-0.020932,-0.0052409,-0.10096,-0.085266,-0.052315,-0.10096,-0.11665,0.60515,2.0519,4.6692,4.8794,3.6257,0.34938,-1.5461,-1.5461,-1.5461,-1.0001,-0.71135,-0.63132,-0.61563,-0.56699,-0.5513,-0.59837,-0.51834,-0.5513,-0.56699,-0.50265,-0.5356,-0.5513,-0.59837,-0.47127,-0.48696,-0.48696,-0.47127,-0.48696,-0.51834,-0.40694,-0.43832,-0.47127,-0.47127,-0.48696,-0.45401,-0.47127,-0.45401,-0.48696,-0.45401,-0.40694,-0.32534,-0.24532,-0.16529,-0.18098,-0.069575,-0.036623,-0.020932,-0.020932,-0.052315,-0.069575,-0.10096,-0.085266,-0.10096,-0.11665,-0.11665,-0.10096,-0.069575,-0.020932,0.012019,0.059093,0.092045,0.13912,0.18776,0.20345,0.2521,0.30074,0.38076,0.46079,0.42941,0.47648,0.50943,0.50943,0.49374,0.42941,0.38076,0.30074,0.20345,0.13912,0.074784,-0.0052409,-0.020932,-0.052315,-0.036623,-0.052315,-0.069575,0.42941,1.7459,4.2518,4.8794,4.4777,1.1041,-1.3374,-1.5461,-1.5461,-1.0817,-0.67996,-0.63132
-0.54886,-0.54886,-0.51558,-0.53301,-0.48388,-0.49973,-0.48388,-0.51558,-0.49973,-0.51558,-0.48388,-0.49973,-0.46803,-0.48388,-0.46803,-0.46803,-0.43474,-0.41889,-0.43474,-0.40304,-0.41889,-0.41889,-0.45059,-0.41889,-0.45059,-0.46803,-0.46803,-0.41889,-0.33806,-0.23979,-0.19224,-0.10982,-0.078115,-0.04483,-0.04483,-0.01313,-0.02898,-0.04483,-0.078115,-0.093965,-0.093965,-0.093965,-0.093965,-0.078115,-0.02898,-0.04483,0.036005,0.067705,0.11684,0.13269,0.16597,0.21352,0.29594,0.36093,0.44176,0.50675,0.50675,0.5226,0.53845,0.47346,0.47346,0.40848,0.37678,0.29594,0.19767,0.11684,0.067705,0.0027199,-0.01313,-0.01313,-0.01313,-0.02898,0.051855,0.7334,2.534,4.9368,4.9368,3.3788,-0.1748,-1.5538,-1.5538,-1.4571,-0.8405,-0.6297,-0.61385,-0.56471,-0.54886,-0.54886,-0.54886,-0.54886,-0.53301,-0.51558,-0.54886,-0.51558,-0.54886,-0.54886,-0.49973,-0.48388,-0.46803,-0.46803,-0.43474,-0.46803,-0.41889,-0.46803,-0.43474,-0.43474,-0.43474,-0.43474,-0.43474,-0.46803,-0.46803,-0.45059,-0.40304,-0.32062,-0.25564,-0.1748,-0.1431,-0.093965,-0.078115,-0.062265,-0.04483,-0.02898,-0.093965,-0.10982,-0.1431,-0.1431,-0.15895,-0.12725,-0.12725,-0.10982,-0.093965,-0.01313,0.020155,0.067705,0.083555,0.14854,0.18182,0.26266,0.34349,0.44176,0.44176,0.48931,0.45761,0.47346,0.44176,0.39263,0.29594,0.27851,0.21352,0.11684,0.051855,-0.02898,-0.078115,-0.093965,-0.062265,-0.10982,-0.062265,0.27851,1.4799,3.8654,4.9368,4.7086,1.3008,-1.4254,-1.5538,-1.5538,-1.2146,-0.8088,-0.6614,-0.61385,-0.6297,-0.58056,-0.59641,-0.56471,-0.58056,-0.54886,-0.58056,-0.53301,-0.56471,-0.51558,-0.54886,-0.56471,-0.51558,-0.49973,-0.54886,-0.46803,-0.45059,-0.46803,-0.45059,-0.46803,-0.43474,-0.46803,-0.41889,-0.48388,-0.46803,-0.46803,-0.41889,-0.32062,-0.23979,-0.19224,-0.12725,-0.093965,-0.1431,-0.04483,-0.02898,-0.04483,-0.078115,-0.1748,-0.1431,-0.15895,-0.19224,-0.22394,-0.1431,-0.078115,-0.062265,-0.01313,-0.062265,0.067705,0.11684,0.13269,0.21352,0.26266,0.36093,0.37678,0.42433,0.45761,0.47346,0.45761,0.44176,0.47346,0.37678,0.27851,0.19767,0.16597,0.067705,0.036005,-0.062265,-0.093965,-0.093965,-0.078115,-0.15895,0.067705,0.87922,2.8747,4.9368,4.9368,2.7622,-0.41889,-1.5538,-1.5538
-1.4814,-0.86592,-0.68873,-0.63968,-0.59064,-0.60646,-0.559,-0.57482,-0.559,-0.54317,-0.559,-0.50995,-0.54317,-0.52577,-0.50995,-0.50995,-0.47831,-0.47831,-0.49413,-0.47831,-0.47831,-0.44508,-0.47831,-0.42926,-0.47831,-0.47831,-0.50995,-0.49413,-0.49413,-0.50995,-0.47831,-0.41344,-0.34858,-0.25049,-0.1698,-0.10493,-0.073289,-0.089111,-0.024244,-0.055886,-0.073289,-0.10493,-0.12075,-0.10493,-0.10493,-0.12075,-0.12075,-0.10493,-0.055886,-0.040065,0.056443,0.072264,0.13713,0.15453,0.202,0.23522,0.31591,0.36495,0.44564,0.42982,0.46146,0.51051,0.47728,0.42982,0.42982,0.34913,0.26686,0.18618,0.12131,0.040622,-0.024244,-0.055886,-0.055886,-0.040065,-0.055886,-0.073289,0.44564,1.8379,4.2997,4.9167,4.3819,0.8823,-1.5621,-1.5621,-1.5621,-1.0289,-0.70455,-0.62386,-0.59064,-0.559,-0.559,-0.559,-0.54317,-0.50995,-0.54317,-0.559,-0.49413,-0.52577,-0.50995,-0.47831,-0.49413,-0.47831,-0.46091,-0.47831,-0.42926,-0.41344,-0.41344,-0.42926,-0.41344,-0.41344,-0.39604,-0.42926,-0.44508,-0.41344,-0.42926,-0.38022,-0.31535,-0.21884,-0.13816,-0.089111,-0.073289,-0.040065,-0.024244,-0.0084231,-0.0084231,-0.024244,-0.055886,-0.10493,-0.13816,-0.10493,-0.12075,-0.10493,-0.10493,-0.073289,-0.024244,0.024801,0.056443,0.10549,0.17035,0.23522,0.30009,0.38077,0.44564,0.44564,0.51051,0.51051,0.52633,0.46146,0.3966,0.33173,0.30009,0.202,0.10549,0.040622,0.024801,-0.024244,-0.040065,-0.024244,-0.040065,-0.0084231,0.60702,2.2113,4.8834,4.9167,3.8139,0.17035,-1.5621,-1.5621,-1.5621,-0.93079,-0.68873,-0.63968,-0.60646,-0.559,-0.559,-0.54317,-0.559,-0.52577,-0.559,-0.49413,-0.52577,-0.49413,-0.50995,-0.49413,-0.50995,-0.47831,-0.47831,-0.44508,-0.41344,-0.42926,-0.41344,-0.41344,-0.42926,-0.46091,-0.42926,-0.44508,-0.42926,-0.44508,-0.41344,-0.38022,-0.33117,-0.25049,-0.12075,-0.10493,-0.089111,-0.024244,-0.024244,-0.055886,-0.089111,-0.055886,-0.10493,-0.12075,-0.13816,-0.10493,-0.13816,-0.10493,-0.10493,-0.055886,-0.0084231,0.00898,-0.0084231,0.10549,0.13713,0.2194,0.28427,0.34913,0.42982,0.41242,0.47728,0.46146,0.49469,0.44564,0.36495,0.28427,0.2194,0.13713,0.056443,0.00898,-0.055886,-0.073289,-0.024244,-0.15398,-0.089111,0.2194,1.0769,3.151,4.9167,4.9167,2.3252,-0.75359
1.2105,0.98967,0.72903,0.47202,0.21138,-0.0094409,-0.19768,-0.3823,-0.4547,-0.53072,-0.60312,-0.67914,-0.67914,-0.71534,-0.67914,-0.71534,-0.63932,-0.63932,-0.60312,-0.56692,-0.53072,-0.4909,-0.4547,-0.4547,-0.4185,-0.4185,-0.4185,-0.4185,-0.4547,-0.4185,-0.4185,-0.3823,-0.4185,-0.3823,-0.3823,-0.3823,-0.4185,-0.3823,-0.34248,-0.3823,-0.3823,-0.34248,-0.30628,-0.27008,-0.30628,-0.27008,-0.23388,-0.23388,-0.19768,-0.23388,-0.19768,-0.23388,-0.23388,-0.19768,-0.19768,-0.19768,-0.19768,-0.19768,-0.19768,-0.19768,-0.19768,-0.19768,-0.08546,-0.049261,0.099158,0.3598,0.72903,0.76885,0.62044,0.50822,0.24758,-0.049261,-0.23388,-0.3823,-0.4185,-0.3823,-0.4185,-0.3823,-0.3823,-0.3823,-0.4185,-0.86376,-1.0484,0.54442,3.5454,5.587,5.587,2.3978,-0.93616,-1.566,-1.0122,-0.60312,-0.53072,-0.53072,-0.4909,-0.4547,-0.4547,-0.4547,-0.3823,-0.3823,-0.3823,-0.34248,-0.23388,-0.19768,-0.19768,-0.15786,-0.049261,-0.0094409,0.099158,0.13898,0.21138,0.2874,0.3598,0.47202,0.65664,0.76885,0.95347,1.0259,1.1743,1.2865,1.3589,1.3987,1.3589,1.1743,0.98967,0.69283,0.4322,0.17518,-0.049261,-0.19768,-0.3823,-0.4547,-0.53072,-0.56692,-0.67914,-0.63932,-0.67914,-0.71534,-0.71534,-0.71534,-0.67914,-0.63932,-0.60312,-0.56692,-0.56692,-0.4909,-0.53072,-0.53072,-0.4909,-0.53072,-0.53072,-0.53072,-0.53072,-0.4909,-0.53072,-0.4909,-0.4185,-0.4185,-0.3823,-0.4185,-0.34248,-0.3823,-0.34248,-0.34248,-0.27008,-0.34248,-0.30628,-0.30628,-0.30628,-0.3823,-0.3823,-0.3823,-0.3823,-0.3823,-0.3823,-0.3823,-0.3823,-0.3823,-0.3823,-0.30628,-0.23388,-0.19768,-0.19768,-0.15786,-0.12166,-0.049261,-0.049261,0.062959,0.13898,0.3598,0.65664,0.80505,0.69283,0.58062,0.396,0.062959,-0.23388,-0.3823,-0.4185,-0.3823,-0.4909,-0.4909,-0.4547,-0.4909,-0.4185,-0.60312,-1.0484,-0.30628,2.0648,5.4386,5.587,4.6965,0.21138,-1.4936,-1.233,-0.71534,-0.53072,-0.53072,-0.53072,-0.4909,-0.4185,-0.4185,-0.4185,-0.4185,-0.3823,-0.34248,-0.30628,-0.27008,-0.23388,-0.19768,-0.15786,-0.0094409,-0.0094409,0.099158,0.17518,0.24758,0.3236,0.47202,0.58062,0.72903,0.84125,1.0259,1.1743,1.3227,1.3589,1.5073,1.4349,1.3589,1.1743,0.95347
0.70194,0.43916,0.18002,-0.0061171,-0.19591,-0.3419,-0.41854,-0.49154,-0.53169,-0.56819,-0.60468,-0.64118,-0.64118,-0.68133,-0.64118,-0.68133,-0.60468,-0.56819,-0.56819,-0.53169,-0.45504,-0.49154,-0.41854,-0.41854,-0.41854,-0.45504,-0.41854,-0.41854,-0.41854,-0.41854,-0.38205,-0.38205,-0.38205,-0.38205,-0.38205,-0.38205,-0.38205,-0.38205,-0.3419,-0.3054,-0.3419,-0.3054,-0.3419,-0.2689,-0.3054,-0.2324,-0.2689,-0.2689,-0.2324,-0.19591,-0.19591,-0.2324,-0.19591,-0.2324,-0.19591,-0.2324,-0.11926,-0.11926,-0.082763,-0.082763,-0.046265,-0.046265,0.030381,0.066879,0.25302,0.62895,0.77859,0.70194,0.5888,0.43916,0.10338,-0.15576,-0.2324,-0.3419,-0.3419,-0.3419,-0.3419,-0.3419,-0.3419,-0.3054,-0.41854,-0.94047,-0.38205,1.8626,5.2605,5.6365,5.1109,0.5158,-1.4259,-1.5025,-0.83097,-0.53169,-0.53169,-0.45504,-0.49154,-0.45504,-0.45504,-0.38205,-0.38205,-0.38205,-0.3419,-0.2689,-0.2324,-0.19591,-0.11926,-0.11926,-0.082763,-0.0061171,0.066879,0.14352,0.25302,0.32966,0.5158,0.5523,0.73844,0.85159,1.0779,1.2239,1.3735,1.4137,1.5231,1.4867,1.4137,1.2239,1.0012,0.73844,0.47931,0.18002,0.030381,-0.19591,-0.3419,-0.41854,-0.49154,-0.56819,-0.60468,-0.64118,-0.68133,-0.68133,-0.71783,-0.64118,-0.64118,-0.56819,-0.56819,-0.53169,-0.49154,-0.41854,-0.49154,-0.45504,-0.45504,-0.45504,-0.45504,-0.45504,-0.49154,-0.45504,-0.41854,-0.49154,-0.41854,-0.45504,-0.41854,-0.45504,-0.41854,-0.49154,-0.41854,-0.45504,-0.38205,-0.45504,-0.38205,-0.38205,-0.3419,-0.3054,-0.2689,-0.3054,-0.2689,-0.3054,-0.2324,-0.3054,-0.2689,-0.2689,-0.2689,-0.2324,-0.2689,-0.2324,-0.2689,-0.19591,-0.2324,-0.19591,-0.19591,-0.082763,-0.0061171,0.25302,0.62895,0.66545,0.5158,0.5158,0.25302,-0.082763,-0.2689,-0.38205,-0.41854,-0.38205,-0.38205,-0.41854,-0.38205,-0.41854,-0.38205,-0.79082,-1.0171,0.32966,3.0926,5.6365,5.6365,2.7933,-0.68133,-1.6887,-1.1668,-0.75433,-0.60468,-0.56819,-0.56819,-0.56819,-0.53169,-0.53169,-0.45504,-0.38205,-0.38205,-0.38205,-0.3054,-0.19591,-0.19591,-0.15576,-0.11926,-0.046265,-0.0061171,0.066879,0.18002,0.29317,0.36616,0.5158,0.5888,0.81509,0.88808,1.0377,1.1874,1.337,1.3735,1.4137,1.3735,1.2239,1.0012,0.70194
0.48033,0.22447,0.0010379,-0.18275,-0.3305,-0.44221,-0.51429,-0.58996,-0.626,-0.66204,-0.66204,-0.73772,-0.66204,-0.69808,-0.626,-0.626,-0.58996,-0.58996,-0.55032,-0.51429,-0.51429,-0.47825,-0.47825,-0.51429,-0.47825,-0.51429,-0.47825,-0.44221,-0.44221,-0.44221,-0.44221,-0.44221,-0.44221,-0.40257,-0.40257,-0.36654,-0.40257,-0.36654,-0.40257,-0.36654,-0.40257,-0.3305,-0.3305,-0.29446,-0.36654,-0.3305,-0.29446,-0.29446,-0.29446,-0.29446,-0.29446,-0.25482,-0.29446,-0.25482,-0.21879,-0.25482,-0.21879,-0.25482,-0.18275,-0.14671,-0.21879,-0.18275,-0.11068,-0.11068,0.076715,0.33258,0.66411,0.59204,0.51636,0.40825,0.11275,-0.14671,-0.25482,-0.29446,-0.3305,-0.36654,-0.3305,-0.3305,-0.3305,-0.3305,-0.40257,-0.95754,-0.47825,1.5506,4.9092,5.648,5.648,0.81186,-1.5485,-1.6206,-0.88547,-0.58996,-0.58996,-0.51429,-0.55032,-0.51429,-0.44221,-0.44221,-0.40257,-0.29446,-0.29446,-0.25482,-0.18275,-0.14671,-0.11068,-0.034999,0.0010379,0.076715,0.11275,0.14879,0.2605,0.29654,0.44429,0.51636,0.66411,0.77583,0.95962,1.1074,1.2551,1.3308,1.4389,1.4029,1.3308,1.147,0.92358,0.62808,0.37222,0.11275,-0.11068,-0.25482,-0.36654,-0.47825,-0.51429,-0.58996,-0.626,-0.626,-0.66204,-0.626,-0.66204,-0.626,-0.626,-0.626,-0.626,-0.55032,-0.51429,-0.47825,-0.51429,-0.51429,-0.51429,-0.47825,-0.51429,-0.47825,-0.44221,-0.44221,-0.47825,-0.44221,-0.44221,-0.36654,-0.40257,-0.36654,-0.36654,-0.40257,-0.36654,-0.3305,-0.29446,-0.29446,-0.29446,-0.21879,-0.25482,-0.25482,-0.21879,-0.18275,-0.18275,-0.21879,-0.18275,-0.18275,-0.18275,-0.14671,-0.18275,-0.14671,-0.18275,-0.14671,-0.14671,-0.11068,-0.11068,-0.034999,-0.034999,0.0010379,0.076715,0.18483,0.40825,0.77583,0.88754,0.77583,0.66411,0.51636,0.14879,-0.071036,-0.21879,-0.25482,-0.29446,-0.29446,-0.29446,-0.3305,-0.3305,-0.29446,-0.626,-0.9215,0.076715,2.8047,5.648,5.648,3.3236,-0.25482,-1.4729,-1.1413,-0.69808,-0.55032,-0.47825,-0.55032,-0.47825,-0.47825,-0.44221,-0.40257,-0.3305,-0.3305,-0.29446,-0.25482,-0.21879,-0.21879,-0.14671,-0.11068,-0.071036,0.037075,0.076715,0.18483,0.2605,0.40825,0.48033,0.62808,0.77583,0.92358,1.0713,1.2191,1.2912,1.4029,1.4389,1.4029,1.2551,1.0353
-0.19532,-0.22225,-0.24918,-0.22225,-0.11183,-0.0014219,0.10899,0.2194,0.16285,0.052438,0.025508,-0.0014219,-0.084905,-0.16569,-0.24918,-0.27611,-0.38652,-0.44307,-0.52655,-0.49693,-0.52655,-0.52655,-0.52655,-0.60734,-0.6639,0.052438,1.6251,3.2517,4.0246,1.1296,-2.2635,-2.9502,-2.0427,-1.0759,-0.63697,-0.47,-0.35959,-0.33266,-0.27611,-0.24918,-0.16569,-0.13876,-0.11183,-0.084905,-0.0014219,0.052438,0.16285,0.24633,0.38368,0.52102,0.71491,0.88188,1.0192,1.1296,1.1835,1.1566,1.0462,0.90881,0.71491,0.52102,0.32982,0.16285,0.025508,-0.028352,-0.11183,-0.13876,-0.16569,-0.19532,-0.22225,-0.16569,-0.22225,-0.22225,-0.24918,-0.22225,-0.27611,-0.22225,-0.084905,-0.0014219,0.082061,0.2194,0.10899,0.025508,-0.0014219,-0.057975,-0.16569,-0.24918,-0.27611,-0.35959,-0.41614,-0.49693,-0.49693,-0.52655,-0.52655,-0.52655,-0.52655,-0.6639,-0.44307,0.4133,2.258,3.6368,4.0515,-0.27611,-2.8425,-3.0607,-1.628,-0.88472,-0.58041,-0.41614,-0.38652,-0.30573,-0.27611,-0.22225,-0.19532,-0.13876,-0.13876,-0.028352,-0.0014219,0.10899,0.16285,0.32982,0.46716,0.6045,0.77147,0.96267,1.0731,1.2104,1.24,1.1566,1.0192,0.85226,0.66105,0.44023,0.27326,0.13592,-0.0014219,-0.057975,-0.11183,-0.13876,-0.16569,-0.19532,-0.16569,-0.22225,-0.22225,-0.24918,-0.16569,-0.22225,-0.19532,-0.19532,-0.028352,0.052438,0.24633,0.30289,0.19247,0.10899,0.052438,-0.028352,-0.13876,-0.22225,-0.27611,-0.38652,-0.47,-0.52655,-0.52655,-0.49693,-0.52655,-0.52655,-0.58041,-0.63697,-0.22225,1.2104,2.8935,3.8576,1.7625,-1.9592,-3.1172,-2.2339,-1.2967,-0.77431,-0.58041,-0.47,-0.41614,-0.38652,-0.33266,-0.27611,-0.24918,-0.19532,-0.13876,-0.057975,0.052438,0.10899,0.2194,0.35675,0.52102,0.66105,0.88188,1.0192,1.1566,1.1566,1.1566,1.0192,0.90881,0.71491,0.52102,0.32982,0.19247,0.082061,-0.0014219,-0.057975,-0.13876,-0.16569,-0.19532,-0.16569,-0.22225,-0.19532,-0.27611,-0.24918,-0.30573,-0.27611,-0.33266,-0.24918,-0.13876,-0.0014219,0.10899,0.2194,0.052438,0.052438,-0.028352,-0.084905,-0.24918,-0.27611,-0.33266,-0.38652,-0.49693,-0.55348,-0.55348,-0.58041,-0.55348,-0.55348,-0.60734,-0.6639,-0.19532,1.1296,2.9205,3.8576,1.819,-1.9323,-3.0903,-2.3174,-1.1863,-0.69083
-0.51526,-0.45268,-0.36031,-0.36031,-0.30071,-0.23814,-0.20834,-0.17854,-0.11894,-0.056366,0.0032301,0.1254,0.21778,0.36975,0.49192,0.70647,0.85844,1.0432,1.1326,1.225,1.1952,1.1326,0.98061,0.79884,0.5545,0.36975,0.15818,0.095605,-0.056366,-0.086165,-0.17854,-0.20834,-0.23814,-0.27091,-0.23814,-0.27091,-0.30071,-0.36031,-0.33051,-0.36031,-0.36031,-0.33051,-0.14874,-0.056366,0.1254,0.18798,0.036008,-0.056366,-0.056366,-0.14874,-0.27091,-0.36031,-0.36031,-0.48248,-0.54506,-0.63743,-0.63743,-0.63743,-0.63743,-0.63743,-0.69703,-0.7596,-0.33051,1.225,3.1767,4.3359,2.0474,-1.9784,-3.504,-2.619,-1.4897,-0.849,-0.63743,-0.48248,-0.45268,-0.36031,-0.36031,-0.30071,-0.27091,-0.20834,-0.14874,-0.056366,0.0032301,0.1254,0.21778,0.33995,0.49192,0.64389,0.85844,1.0104,1.1326,1.1952,1.225,1.073,0.95081,0.76606,0.5545,0.33995,0.18798,0.036008,-0.056366,-0.14874,-0.20834,-0.27091,-0.23814,-0.30071,-0.33051,-0.27091,-0.30071,-0.33051,-0.36031,-0.33051,-0.36031,-0.30071,-0.14874,0.0032301,0.1254,0.18798,-0.026568,-0.026568,-0.086165,-0.14874,-0.33051,-0.36031,-0.42288,-0.48248,-0.63743,-0.63743,-0.63743,-0.63743,-0.63743,-0.63743,-0.72683,-0.7894,-0.14874,1.4693,3.3913,4.4283,1.7434,-2.2823,-3.4414,-2.4968,-1.3377,-0.8192,-0.57486,-0.48248,-0.39309,-0.36031,-0.33051,-0.30071,-0.23814,-0.20834,-0.14874,-0.086165,0.0032301,0.095605,0.24758,0.33995,0.52172,0.67667,0.88824,1.0432,1.1624,1.225,1.1952,1.073,0.92102,0.76606,0.52172,0.33995,0.1254,0.036008,-0.086165,-0.11894,-0.20834,-0.20834,-0.27091,-0.23814,-0.27091,-0.23814,-0.33051,-0.30071,-0.33051,-0.33051,-0.33051,-0.20834,-0.086165,0.036008,0.15818,0.095605,-0.026568,-0.056366,-0.086165,-0.20834,-0.33051,-0.36031,-0.42288,-0.57486,-0.60465,-0.66723,-0.63743,-0.66723,-0.63743,-0.69703,-0.7894,-0.69703,0.095605,1.9878,3.725,4.2763,0.49192,-2.8932,-3.4742,-2.1601,-1.2155,-0.7596,-0.63743,-0.48248,-0.48248,-0.36031,-0.36031,-0.30071,-0.27091,-0.20834,-0.17854,-0.056366,0.0032301,0.1254,0.21778,0.43232,0.5545,0.76606,0.98061,1.1326,1.225,1.2548,1.2846,1.1326,0.95081,0.70647,0.49192,0.24758,0.1254,-0.056366,-0.11894,-0.20834,-0.20834,-0.30071,-0.30071,-0.33051
-0.24155,-0.26811,-0.24155,-0.26811,-0.26811,-0.29467,-0.24155,-0.1061,0.029354,0.13825,0.24714,0.16746,0.085128,-0.023765,-0.07954,-0.18578,-0.29467,-0.29467,-0.40357,-0.4859,-0.54168,-0.54168,-0.56824,-0.56824,-0.56824,-0.56824,-0.70369,-0.45934,0.65616,2.4516,3.6468,3.7557,-1.0835,-3.0409,-2.5257,-1.4367,-0.83914,-0.59479,-0.4859,-0.43278,-0.40357,-0.37701,-0.29467,-0.26811,-0.18578,-0.15922,-0.050325,-0.023765,0.058569,0.13825,0.32948,0.43837,0.60038,0.73849,0.92706,1.036,1.1183,1.1449,1.0625,0.9005,0.73849,0.5207,0.32948,0.16746,0.029354,-0.050325,-0.13266,-0.15922,-0.15922,-0.18578,-0.24155,-0.24155,-0.26811,-0.26811,-0.29467,-0.29467,-0.32389,-0.29467,-0.29467,-0.15922,-0.050325,0.085128,0.19402,0.11169,0.0027941,-0.023765,-0.07954,-0.21499,-0.29467,-0.32389,-0.40357,-0.51246,-0.54168,-0.56824,-0.54168,-0.56824,-0.54168,-0.62135,-0.67713,-0.45934,0.68272,2.4781,3.6202,3.6999,-1.2482,-3.0701,-2.5788,-1.4367,-0.83914,-0.56824,-0.43278,-0.40357,-0.35045,-0.29467,-0.26811,-0.21499,-0.18578,-0.13266,-0.07954,0.0027941,0.085128,0.22058,0.27636,0.46493,0.57382,0.76505,0.9005,1.036,1.0917,1.1183,1.036,0.92706,0.73849,0.57382,0.38525,0.22058,0.11169,0.029354,-0.050325,-0.1061,-0.13266,-0.15922,-0.18578,-0.24155,-0.21499,-0.29467,-0.26811,-0.29467,-0.29467,-0.29467,-0.24155,-0.15922,-0.023765,0.085128,0.19402,0.058569,0.0027941,-0.023765,-0.050325,-0.18578,-0.26811,-0.29467,-0.37701,-0.45934,-0.4859,-0.54168,-0.54168,-0.51246,-0.54168,-0.56824,-0.65057,-0.37701,0.68272,2.4516,3.6999,3.838,-0.89492,-2.9612,-3.0144,-1.4925,-0.83914,-0.54168,-0.45934,-0.35045,-0.29467,-0.24155,-0.18578,-0.15922,-0.13266,-0.13266,-0.023765,0.0027941,0.11169,0.16746,0.30292,0.43837,0.60038,0.73849,0.92706,1.036,1.1449,1.1449,1.1183,0.95628,0.81817,0.60038,0.46493,0.24714,0.13825,0.0027941,-0.023765,-0.1061,-0.13266,-0.15922,-0.15922,-0.18578,-0.21499,-0.18578,-0.21499,-0.21499,-0.26811,-0.21499,-0.21499,-0.050325,0.029354,0.16746,0.22058,0.085128,-0.023765,-0.023765,-0.1061,-0.18578,-0.24155,-0.29467,-0.40357,-0.45934,-0.51246,-0.4859,-0.45934,-0.54168,-0.51246,-0.54168,-0.59479,-0.26811,0.98284,2.8048,3.9469,2.2869,-1.4925,-3.0144
0.3802,0.3802,0.2563,0.17636,0.17636,0.052455,0.012486,-0.11142,-0.071449,0.012486,-0.071449,0.012486,-0.11142,-0.15139,-0.071449,-0.03148,-0.071449,-0.03148,-0.071449,0.052455,0.052455,0.012486,-0.071449,0.012486,0.012486,0.012486,-0.03148,0.012486,0.012486,0.052455,0.052455,0.17636,0.29627,0.17636,0.29627,0.17636,0.13239,0.13239,0.17636,0.012486,0.052455,0.3802,0.58404,0.66398,0.78789,0.70795,0.62401,0.46014,0.3802,0.2563,0.21633,-0.19535,-0.35923,-0.60304,-0.60304,-0.72694,-0.68298,-0.72694,-0.76691,-0.84685,0.46014,3.0381,6.2317,2.2627,-0.72694,-2.0779,-1.7901,-1.3385,-1.1346,-1.0947,-1.1746,-1.0547,-1.0107,-1.0547,-0.97075,-0.89082,-0.76691,-0.64301,-0.84685,-0.76691,-0.76691,-0.76691,-0.72694,-0.76691,-0.68298,-0.56307,-0.47913,-0.5231,-0.5231,-0.60304,-0.43916,-0.31526,-0.27529,-0.5231,-0.56307,-0.60304,-0.43916,-0.60304,-0.60304,-0.72694,-0.56307,-0.60304,-0.60304,-0.60304,-0.5231,-0.60304,-0.64301,-0.56307,-0.60304,-0.60304,-0.60304,-0.56307,-0.56307,-0.47913,-0.47913,-0.47913,-0.47913,-0.47913,-0.3992,-0.27529,-0.3992,-0.3992,-0.3992,-0.27529,-0.3992,-0.3992,-0.3992,-0.31526,-0.19535,-0.19535,-0.19535,-0.11142,0.17636,0.50011,0.62401,0.70795,0.74792,0.54408,0.33624,0.2563,0.29627,-0.03148,-0.19535,-0.19535,-0.23532,-0.35923,-0.35923,-0.3992,-0.31526,-0.3992,0.54408,2.4666,6.3116,3.8175,0.3802,-1.4624,-1.6262,-0.93078,-0.64301,-0.60304,-0.5231,-0.43916,-0.3992,-0.31526,-0.27529,-0.19535,-0.15139,-0.071449,-0.15139,0.012486,0.012486,0.092425,0.012486,0.13239,0.092425,0.17636,0.17636,0.17636,0.17636,0.2563,0.33624,0.33624,0.29627,0.2563,0.17636,0.13239,0.012486,-0.03148,0.012486,0.052455,0.13239,0.052455,0.17636,0.052455,0.092425,0.012486,0.092425,0.092425,0.17636,0.092425,0.17636,0.012486,0.13239,0.17636,0.13239,0.21633,0.17636,0.17636,0.21633,0.2563,0.17636,0.21633,0.17636,0.21633,0.21633,0.17636,0.092425,0.17636,0.13239,0.21633,0.17636,0.2563,0.3802,0.70795,0.78789,0.95176,0.91179,0.82786,0.66398,0.54408,0.50011,0.46014,0.092425,-0.15139,-0.31526,-0.31526,-0.27529,-0.35923,-0.27529,-0.3992,-0.3992,0.66398,3.286,6.8432,3.286,-0.03148,-1.5023,-1.5423,-0.72694,-0.60304
-0.5343,-0.58322,-0.43156,-0.38264,-0.33372,-0.33372,-0.23098,-0.13313,-0.084207,-0.084207,-0.030391,0.067455,0.11638,0.17019,0.067455,0.31696,0.26804,0.31696,0.31696,0.46863,0.46863,0.62029,0.51755,0.62029,0.51755,0.56647,0.37078,0.31696,0.17019,0.37078,0.17019,0.26804,0.21912,0.17019,0.26804,0.11638,0.21912,0.11638,0.17019,0.17019,0.26804,0.17019,0.17019,0.21912,0.31696,0.17019,0.31696,0.17019,0.26804,0.21912,0.26804,0.17019,0.21912,0.17019,0.17019,0.17019,0.31696,0.17019,0.17019,0.018532,0.018532,-0.084207,0.067455,0.4197,0.8698,1.1193,1.1193,1.1682,0.91872,0.76706,0.51755,0.51755,0.31696,0.067455,-0.28479,-0.43156,-0.5343,-0.33372,-0.5343,-0.48538,-0.63215,-0.28479,1.4226,5.2778,7.6799,2.4696,-0.73489,-1.7329,-1.185,-0.78381,-0.73489,-0.88166,-0.63215,-0.68107,-0.63215,-0.68107,-0.48538,-0.5343,-0.38264,-0.38264,-0.33372,-0.38264,-0.33372,-0.38264,-0.33372,-0.13313,-0.030391,-0.084207,-0.084207,-0.13313,-0.18205,-0.084207,0.067455,0.17019,-0.084207,-0.084207,-0.18205,-0.33372,-0.38264,-0.43156,-0.48538,-0.38264,-0.48538,-0.48538,-0.63215,-0.68107,-0.63215,-0.58322,-0.63215,-0.48538,-0.43156,-0.58322,-0.58322,-0.58322,-0.63215,-0.5343,-0.48538,-0.58322,-0.5343,-0.58322,-0.48538,-0.58322,-0.68107,-0.5343,-0.33372,-0.48538,-0.48538,-0.58322,-0.43156,-0.5343,-0.43156,-0.48538,-0.38264,-0.18205,0.11638,0.31696,0.51755,0.46863,0.46863,0.31696,0.018532,-0.13313,-0.23098,-0.48538,-0.78381,-0.73489,-0.9844,-0.93547,-1.0333,-1.0333,-1.0822,-1.1361,0.37078,3.3747,7.2787,2.9735,-0.68107,-2.4863,-2.5353,-1.5862,-1.4345,-1.3856,-1.3856,-1.2339,-1.0333,-0.93547,-0.88166,-0.78381,-0.73489,-0.68107,-0.5343,-0.58322,-0.43156,-0.48538,-0.33372,-0.33372,-0.18205,-0.18205,-0.084207,-0.084207,0.067455,0.11638,0.17019,0.11638,0.17019,0.067455,0.018532,-0.030391,-0.084207,0.018532,0.17019,0.11638,0.067455,0.11638,0.067455,0.17019,0.11638,0.17019,0.067455,0.21912,0.067455,0.17019,0.11638,0.21912,0.21912,0.26804,0.26804,0.37078,0.26804,0.31696,0.37078,0.37078,0.31696,0.37078,0.37078,0.37078,0.37078,0.37078,0.26804,0.26804,0.26804,0.21912,0.26804,0.21912,0.37078,0.71813,1.1682,1.222,1.3199,1.1682
0.91601,0.70855,0.66381,0.49704,0.28959,-0.043963,-0.08464,-0.25141,-0.21074,-0.16599,-0.21074,-0.16599,-0.29209,0.58246,2.8726,6.745,4.2474,0.58246,-1.3334,-1.4148,-0.79241,-0.54022,-0.62564,-0.49954,-0.45886,-0.37751,-0.33277,-0.25141,-0.16599,-0.21074,-0.12532,-0.043963,-0.08464,-0.043963,-0.043963,-0.043963,0.00078099,0.12281,0.24891,0.24891,0.28959,0.24891,0.33433,0.33433,0.45636,0.37501,0.33433,0.20823,0.20823,0.12281,0.16756,0.20823,0.16756,0.082134,0.12281,0.16756,0.041458,0.041458,0.082134,0.082134,0.041458,0.00078099,0.12281,0.16756,0.082134,0.16756,0.12281,0.24891,0.16756,0.16756,0.12281,0.28959,0.16756,0.24891,0.16756,0.16756,0.16756,0.12281,0.082134,0.16756,0.16756,0.12281,0.12281,0.16756,0.20823,0.41568,0.58246,0.87533,0.99736,0.91601,0.87533,0.74923,0.58246,0.45636,0.37501,0.041458,-0.16599,-0.25141,-0.25141,-0.33277,-0.25141,-0.37751,-0.37751,-0.49954,0.74923,3.3729,6.7856,2.9539,-0.21074,-1.5815,-1.1666,-0.83309,-0.66632,-0.62564,-0.70699,-0.58496,-0.54022,-0.45886,-0.45886,-0.33277,-0.37751,-0.25141,-0.043963,0.00078099,-0.043963,0.00078099,-0.12532,-0.043963,-0.12532,-0.16599,-0.25141,-0.16599,-0.21074,-0.08464,-0.043963,0.00078099,0.041458,-0.043963,0.041458,-0.08464,-0.25141,-0.25141,-0.21074,-0.29209,-0.25141,-0.45886,-0.37751,-0.41819,-0.37751,-0.45886,-0.37751,-0.41819,-0.37751,-0.45886,-0.49954,-0.54022,-0.45886,-0.45886,-0.45886,-0.41819,-0.45886,-0.41819,-0.45886,-0.41819,-0.33277,-0.29209,-0.41819,-0.33277,-0.45886,-0.45886,-0.49954,-0.45886,-0.54022,-0.49954,-0.41819,-0.25141,-0.12532,0.16756,0.33433,0.28959,0.16756,0.20823,0.00078099,-0.043963,0.041458,-0.29209,-0.62564,-0.83309,-0.91851,-0.95919,-0.83309,-0.83309,-0.70699,-0.83309,0.20823,2.4129,6.0372,2.9986,-0.25141,-2.0005,-2.0819,-1.4595,-1.2073,-1.2073,-1.1666,-1.1666,-1.0405,-0.95919,-0.83309,-0.79241,-0.70699,-0.66632,-0.66632,-0.62564,-0.54022,-0.45886,-0.45886,-0.33277,-0.29209,-0.25141,-0.25141,-0.12532,-0.12532,0.041458,0.00078099,0.12281,0.041458,0.00078099,-0.043963,-0.043963,-0.043963,0.00078099,0.00078099,0.041458,0.082134,0.041458,0.16756,0.12281,0.16756,0.082134,0.12281,0.16756,0.20823,0.16756,0.20823,0.16756,0.20823,0.12281,0.16756,0.16756
2.202,2.202,2.1092,2.1392,2.0793,2.0464,2.0793,1.9865,1.9267,1.9267,1.8937,1.8638,1.8937,1.771,1.7411,1.5884,1.4957,1.343,1.3131,1.1605,1.1904,0.94496,0.91503,0.72947,0.72947,0.5469,0.51697,0.3314,0.27155,0.1189,0.056052,-0.066659,-0.12652,-0.18937,-0.24923,-0.28215,-0.31208,-0.37194,-0.40486,-0.37194,-0.43479,-0.37194,-0.43479,-0.37194,-0.43479,-0.34201,-0.40486,-0.34201,-0.37194,-0.28215,-0.37194,-0.31208,-0.37194,-0.34201,-0.37194,-0.34201,-0.31208,-0.37194,-0.31208,-0.40486,-0.34201,-0.40486,-0.34201,-0.43479,-0.40486,-0.49465,-0.40486,-0.43479,-0.34201,-0.37194,-0.15944,-0.066659,0.085982,-0.096589,-0.28215,-0.49465,-0.52458,-0.46472,-0.52458,-0.64729,-0.77,-0.86279,-0.80293,-0.74008,-0.80293,-0.86279,0.20869,2.2918,5.2967,2.5372,-0.31208,-1.4763,-1.5063,-0.92564,-0.95557,-0.95557,-1.0154,-0.92564,-1.0454,-0.95557,-0.95557,-0.80293,-0.80293,0.1189,-0.12652,-0.2193,-0.37194,-0.46472,-0.5575,-0.58743,-0.68022,-0.71015,-0.68022,-0.71015,-0.68022,-0.71015,-0.64729,-0.71015,-0.64729,-0.68022,-0.64729,-0.68022,-0.61736,-0.74008,-0.68022,-0.77,-0.71015,-0.77,-0.80293,-0.77,-0.80293,-0.77,-0.80293,-0.86279,-0.89272,-0.77,-0.80293,-0.77,-0.80293,-0.71015,-0.77,-0.68022,-0.74008,-0.64729,-0.68022,-0.58743,-0.68022,-0.64729,-0.68022,-0.61736,-0.68022,-0.61736,-0.58743,-0.52458,-0.58743,-0.40486,-0.24923,-0.003807,0.056052,0.085982,-0.03673,-0.15944,-0.12652,-0.31208,-0.24923,-0.34201,-0.52458,-0.68022,-0.64729,-0.74008,-0.64729,-0.68022,-0.61736,0.17876,2.0464,5.2967,5.6649,0.51697,-1.0454,-1.1681,-0.52458,-0.58743,-0.5575,-0.64729,-0.58743,-0.61736,-0.52458,-0.49465,-0.52458,-0.34201,-0.24923,-0.096589,0.026123,0.17876,0.20869,0.39426,0.3314,0.51697,0.5469,0.66961,0.63968,0.72947,0.66961,0.85218,0.91503,0.88211,0.94496,1.0377,0.97489,1.0377,1.0677,0.91503,0.85218,0.79232,0.66961,0.48405,0.36133,0.23862,0.27155,0.026123,0.026123,-0.03673,-0.066659,-0.12652,-0.03673,-0.096589,-0.066659,-0.18937,-0.066659,-0.096589,-0.003807,-0.066659,-0.003807,-0.096589,0.026123,0.056052,-0.096589,-0.03673,-0.096589,-0.003807,-0.096589,-0.066659,-0.096589,-0.066659,-0.096589,-0.12652,-0.15944,0.056052,-0.096589,-0.03673
-0.76495,-0.68326,-0.76495,-0.60546,-0.72216,-0.68326,-0.76495,-0.64436,-0.60546,-0.68326,-0.56267,-0.60546,-0.48487,-0.28648,0.032505,0.1531,0.27369,0.2309,0.032505,-0.16589,-0.32538,-0.36428,-0.24758,-0.52377,-0.68326,-0.92444,-0.84275,-0.92444,-0.80385,-0.96334,-0.68326,0.63157,3.5763,7.2796,3.1795,-0.20479,-1.5585,-1.1228,-0.76495,-0.68326,-0.88165,-0.80385,-0.88165,-0.84275,-0.88165,-0.72216,-0.76495,-0.48487,-0.44597,-0.16589,-0.12699,0.1142,0.1531,0.39039,0.35149,0.51098,0.47208,0.70937,0.74827,0.70937,0.70937,0.82996,0.90776,0.98945,1.0283,0.98945,1.1489,0.98945,1.11,0.98945,0.90776,0.70937,0.63157,0.31259,0.2309,-0.045295,-0.088086,-0.24758,-0.28648,-0.44597,-0.36428,-0.44597,-0.44597,-0.52377,-0.48487,-0.40318,-0.48487,-0.32538,-0.48487,-0.40318,-0.48487,-0.40318,-0.44597,-0.32538,-0.44597,-0.36428,-0.40318,-0.32538,-0.48487,-0.36428,-0.48487,-0.44597,-0.52377,-0.40318,-0.52377,-0.48487,-0.60546,-0.52377,-0.48487,-0.60546,-0.48487,-0.52377,-0.60546,-0.44597,-0.32538,-0.48487,-0.44597,-0.48487,-0.36428,-0.48487,-0.32538,-0.44597,-0.40318,-0.48487,-0.32538,-0.44597,-0.36428,-0.44597,-0.32538,-0.44597,-0.20479,-0.088086,0.31259,0.43318,0.58878,0.39039,0.39039,0.1531,0.032505,0.1531,-0.0063952,-0.28648,-0.56267,-0.64436,-0.68326,-0.68326,-0.68326,-0.72216,-0.16589,1.6663,5.4474,7.2796,2.0242,-0.84275,-1.399,-0.72216,-0.68326,-0.76495,-0.64436,-0.68326,-0.80385,-0.84275,-0.64436,-0.68326,-0.48487,-0.24758,-0.088086,0.071405,0.27369,0.39039,0.54988,0.47208,0.74827,0.74827,0.82996,0.79106,0.90776,0.82996,0.95055,0.98945,1.11,1.0672,1.1489,1.2267,1.1878,1.2695,1.1878,1.2267,1.11,0.98945,0.82996,0.67047,0.43318,0.35149,0.2309,0.032505,-0.12699,-0.045295,-0.20479,-0.16589,-0.24758,-0.16589,-0.32538,-0.16589,-0.24758,-0.16589,-0.24758,-0.12699,-0.16589,-0.12699,-0.24758,-0.088086,-0.16589,-0.24758,-0.16589,-0.28648,-0.12699,-0.20479,-0.16589,-0.28648,-0.20479,-0.32538,-0.28648,-0.36428,-0.28648,-0.40318,-0.36428,-0.40318,-0.32538,-0.40318,-0.32538,-0.32538,-0.24758,-0.36428,-0.28648,-0.32538,-0.20479,-0.28648,-0.24758,-0.32538,-0.20479,-0.16589,-0.0063952,0.192,0.39039,0.58878,0.63157,0.58878,0.27369,0.192
-0.32763,-0.30976,-0.32763,-0.41879,-0.56537,-0.54749,-0.58324,-0.56537,-0.56537,-0.52783,-0.54749,0.44099,2.1427,3.0024,0.75201,-0.56537,-0.85851,-0.56537,-0.49208,-0.4742,-0.43667,-0.49208,-0.40092,-0.38304,-0.34551,-0.27222,-0.16318,-0.052359,0.074552,0.1675,0.29441,0.40524,0.53215,0.60543,0.73413,0.76988,0.88071,0.88071,1.0076,1.0452,1.1006,1.1542,1.2275,1.3204,1.3741,1.4116,1.4652,1.5028,1.4652,1.5028,1.4652,1.4295,1.3562,1.3008,1.1917,1.2275,1.1363,1.1542,1.063,1.0809,1.063,1.063,0.98974,1.0452,0.98974,1.063,1.0452,1.0273,1.0452,1.0273,1.063,1.0273,1.063,1.0273,1.063,0.97187,0.93612,0.88071,0.93612,0.86283,0.88071,0.82529,0.86283,0.80742,0.80742,0.73413,0.76988,0.71626,0.76988,0.71626,0.75201,0.71626,0.75201,0.76988,0.75201,0.78954,0.86283,0.89858,1.0273,1.1006,1.1363,1.1542,1.0273,0.95399,0.88071,0.88071,0.82529,0.73413,0.58756,0.55181,0.4964,0.58756,0.55181,0.51427,0.82529,1.7226,3.1687,3.1687,1.3562,0.18538,-0.072021,0.24079,0.31229,0.25866,0.22113,0.20325,0.22113,0.18538,0.20325,0.12996,0.14784,0.12996,0.20325,0.18538,0.25866,0.27654,0.31229,0.29441,0.33195,0.29441,0.33195,0.27654,0.29441,0.27654,0.25866,0.27654,0.24079,0.29441,0.27654,0.29441,0.25866,0.24079,0.20325,0.1675,0.038803,-0.052359,-0.21681,-0.29009,-0.41879,-0.49208,-0.60112,-0.65653,-0.74769,-0.74769,-0.82098,-0.8031,-0.85851,-0.87639,-0.84064,-0.89426,-0.85851,-0.91214,-0.89426,-0.9318,-0.89426,-0.9318,-0.89426,-0.94967,-0.9318,-0.96755,-0.94967,-1.0051,-0.98542,-1.023,-1.0051,-1.0587,-1.0408,-1.0784,-1.0784,-1.132,-1.1141,-1.1695,-1.1695,-1.1874,-1.2053,-1.2428,-1.2232,-1.2428,-1.2607,-1.2428,-1.2964,-1.2607,-1.2964,-1.2607,-1.2786,-1.2607,-1.3161,-1.2607,-1.3161,-1.2607,-1.2964,-1.2232,-1.1874,-1.023,-0.94967,-0.85851,-0.9318,-0.9318,-0.91214,-1.0784,-1.1141,-1.132,-1.2053,-1.3697,-1.4073,-1.4251,-1.3894,-1.4073,-1.3519,-1.4073,-0.43667,1.2096,2.1981,-0.052359,-1.4073,-1.754,-1.4251,-1.334,-1.2964,-1.3697,-1.3161,-1.2964,-1.334,-1.2964,-1.334,-1.2053,-1.132,-1.0408,-0.96755,-0.85851
-0.37446,-0.4512,-0.41283,-0.33226,-0.33226,-0.05984,0.25478,0.45046,0.56941,0.4121,0.13968,0.059103,0.13968,-0.05984,-0.21715,-0.25552,-0.33226,-0.29389,-0.48957,-0.52794,-0.68525,-0.60851,-0.41283,1.1987,3.8307,4.6557,2.4149,-0.017634,-0.57014,-0.72745,-0.17495,-0.41283,-0.52794,-0.52794,-0.48957,-0.48957,-0.48957,-0.4512,-0.41283,-0.33226,-0.29389,-0.17495,-0.13658,-0.098208,0.020734,0.097472,0.21641,0.29315,0.4121,0.60778,0.72672,0.88403,1.1181,1.3176,1.5516,1.709,1.9046,2.0236,2.0619,2.1003,1.943,1.6322,1.237,0.84566,0.45046,0.13968,-0.13658,-0.33226,-0.33226,-0.41283,-0.48957,-0.57014,-0.52794,-0.48957,-0.4512,-0.41283,-0.48957,-0.48957,-0.4512,-0.48957,-0.41283,-0.41283,-0.4512,-0.48957,-0.48957,-0.48957,-0.48957,-0.48957,-0.52794,-0.48957,-0.57014,-0.57014,-0.57014,-0.52794,-0.57014,-0.60851,-0.60851,-0.60851,-0.60851,-0.52794,-0.48957,-0.60851,-0.57014,-0.52794,-0.57014,-0.48957,-0.52794,-0.48957,-0.41283,-0.29389,0.097472,0.29315,0.4121,0.45046,0.097472,0.020734,0.020734,-0.17495,-0.29389,-0.33226,-0.37446,-0.41283,-0.48957,-0.68525,-0.68525,-0.72745,-0.64688,0.45046,3.0058,4.5367,3.0826,0.29315,-0.37446,-0.88477,-0.41283,-0.33226,-0.68525,-0.68525,-0.72745,-0.68525,-0.68525,-0.64688,-0.52794,-0.48957,-0.37446,-0.33226,-0.25552,-0.25552,-0.13658,0.020734,0.059103,0.21641,0.25478,0.49267,0.56941,0.80729,0.9224,1.0413,1.3176,1.5516,1.7473,1.9046,1.943,1.943,1.8663,1.59,1.1603,0.72672,0.29315,-0.017634,-0.29389,-0.4512,-0.48957,-0.60851,-0.57014,-0.68525,-0.64688,-0.60851,-0.48957,-0.57014,-0.64688,-0.48957,-0.57014,-0.64688,-0.57014,-0.48957,-0.48957,-0.4512,-0.48957,-0.48957,-0.4512,-0.64688,-0.57014,-0.52794,-0.68525,-0.68525,-0.57014,-0.52794,-0.64688,-0.60851,-0.68525,-0.64688,-0.60851,-0.68525,-0.57014,-0.60851,-0.57014,-0.60851,-0.68525,-0.60851,-0.64688,-0.57014,-0.48957,-0.4512,-0.098208,0.13968,0.21641,0.37373,0.13968,-0.017634,0.097472,-0.017634,-0.17495,-0.29389,-0.21715,-0.4512,-0.48957,-0.64688,-0.68525,-0.80419,-0.68525,0.059103,2.2193,4.6557,4.9319,1.356,-0.13658,-0.84256,-0.88477,-0.41283,-0.64688,-0.68525,-0.68525,-0.68525,-0.64688,-0.60851,-0.48957,-0.4512,-0.4512,-0.41283
-0.46748,-0.34708,-0.30824,-0.18784,-0.071323,0.049076,0.12675,0.28599,0.44523,0.60447,0.76371,1.0433,1.323,1.5211,1.7191,1.8784,1.9172,1.9561,1.9172,1.6803,1.2803,0.84527,0.36755,-0.028601,-0.30824,-0.50632,-0.58788,-0.66555,-0.70439,-0.74711,-0.74711,-0.74711,-0.74711,-0.70439,-0.66555,-0.66555,-0.58788,-0.54904,-0.54904,-0.58788,-0.54904,-0.50632,-0.50632,-0.54904,-0.54904,-0.54904,-0.50632,-0.54904,-0.54904,-0.54904,-0.54904,-0.58788,-0.62672,-0.62672,-0.62672,-0.58788,-0.58788,-0.58788,-0.62672,-0.54904,-0.58788,-0.58788,-0.62672,-0.54904,-0.58788,-0.54904,-0.50632,-0.46748,-0.149,0.16948,0.28599,0.40639,0.20831,-0.028601,-0.071323,-0.028601,-0.2694,-0.30824,-0.34708,-0.3898,-0.46748,-0.62672,-0.70439,-0.78595,-0.82479,-0.42864,1.4007,4.5039,5.3777,2.593,-0.028601,-0.74711,-0.78595,-0.34708,-0.58788,-0.66555,-0.70439,-0.70439,-0.66555,-0.66555,-0.62672,-0.58788,-0.50632,-0.46748,-0.34708,-0.23056,-0.11016,-0.071323,0.010238,0.12675,0.20831,0.32871,0.48795,0.64719,0.84527,1.0433,1.323,1.5211,1.7191,1.8395,1.9561,1.9988,1.9172,1.8395,1.4395,1.0045,0.56563,0.20831,-0.071323,-0.34708,-0.50632,-0.58788,-0.62672,-0.62672,-0.62672,-0.62672,-0.66555,-0.54904,-0.54904,-0.62672,-0.58788,-0.54904,-0.54904,-0.58788,-0.54904,-0.54904,-0.50632,-0.58788,-0.58788,-0.54904,-0.58788,-0.62672,-0.62672,-0.62672,-0.62672,-0.58788,-0.66555,-0.62672,-0.62672,-0.62672,-0.66555,-0.58788,-0.58788,-0.58788,-0.58788,-0.54904,-0.54904,-0.58788,-0.58788,-0.54904,-0.54904,-0.46748,-0.23056,0.12675,0.28599,0.44523,0.28599,-0.028601,-0.11016,-0.028601,-0.18784,-0.30824,-0.30824,-0.3898,-0.42864,-0.58788,-0.70439,-0.78595,-0.70439,-0.46748,1.121,4.065,4.9777,2.4765,-0.11016,-0.70439,-0.78595,-0.30824,-0.54904,-0.66555,-0.66555,-0.66555,-0.62672,-0.58788,-0.54904,-0.50632,-0.46748,-0.34708,-0.30824,-0.2694,-0.18784,-0.11016,-0.028601,0.087915,0.16948,0.32871,0.44523,0.64719,0.80643,1.0433,1.2026,1.4822,1.5987,1.758,1.7968,1.9172,1.9172,1.758,1.4395,1.0433,0.64719,0.24715,-0.071323,-0.30824,-0.46748,-0.50632,-0.58788,-0.62672,-0.58788,-0.62672,-0.58788,-0.62672,-0.54904,-0.58788,-0.58788,-0.54904,-0.54904,-0.54904,-0.54904,-0.54904
-0.35674,-0.44895,-0.49286,-0.44895,-0.44895,-0.49286,-0.44895,-0.40504,-0.49286,-0.44895,-0.44895,-0.49286,-0.53677,-0.49286,-0.49286,-0.53677,-0.53677,-0.44895,-0.49286,-0.49286,-0.44895,-0.44895,-0.44895,-0.44895,-0.35674,-0.31283,-0.044981,0.31508,0.53901,0.67513,0.53901,0.27117,0.13505,0.27117,0.047229,-0.1328,-0.1328,-0.22501,-0.26892,-0.44895,-0.62898,-0.71679,-0.62898,-0.44895,1.303,4.4074,5.3954,2.8355,-0.044981,-0.58068,-0.7607,-0.1328,-0.40504,-0.53677,-0.58068,-0.53677,-0.58068,-0.53677,-0.44895,-0.35674,-0.35674,-0.26892,-0.17671,-0.08889,0.0033195,0.091138,0.18335,0.31508,0.40729,0.58731,0.71904,0.89907,1.0791,1.303,1.5314,1.7553,1.9792,2.1593,2.2471,2.3832,2.3832,2.2471,1.8914,1.3952,0.99128,0.4951,0.13505,-0.1328,-0.31283,-0.40504,-0.44895,-0.53677,-0.49286,-0.49286,-0.44895,-0.44895,-0.40504,-0.40504,-0.40504,-0.40504,-0.44895,-0.49286,-0.35674,-0.44895,-0.49286,-0.53677,-0.53677,-0.53677,-0.53677,-0.53677,-0.53677,-0.49286,-0.58068,-0.53677,-0.53677,-0.53677,-0.53677,-0.53677,-0.53677,-0.53677,-0.53677,-0.53677,-0.53677,-0.49286,-0.49286,-0.49286,-0.49286,-0.49286,-0.44895,-0.35674,-0.22501,0.22726,0.4951,0.67513,0.4951,0.27117,0.13505,0.31508,0.047229,-0.1328,-0.17671,-0.26892,-0.35674,-0.53677,-0.67288,-0.7607,-0.809,-0.58068,0.76734,3.4634,5.2154,3.5073,0.35899,-0.35674,-0.85291,-0.31283,-0.40504,-0.67288,-0.71679,-0.7607,-0.67288,-0.71679,-0.58068,-0.53677,-0.53677,-0.44895,-0.40504,-0.31283,-0.22501,-0.1328,0.047229,0.18335,0.31508,0.35899,0.4951,0.67513,0.89907,1.0791,1.303,1.5314,1.7553,1.9792,2.2032,2.2954,2.3393,2.2032,1.8914,1.3952,0.89907,0.40729,0.0033195,-0.31283,-0.44895,-0.53677,-0.67288,-0.7607,-0.71679,-0.7607,-0.67288,-0.62898,-0.67288,-0.53677,-0.62898,-0.62898,-0.62898,-0.53677,-0.58068,-0.53677,-0.49286,-0.49286,-0.53677,-0.53677,-0.62898,-0.7607,-0.7607,-0.71679,-0.62898,-0.67288,-0.62898,-0.58068,-0.53677,-0.71679,-0.7607,-0.62898,-0.71679,-0.67288,-0.67288,-0.71679,-0.62898,-0.53677,-0.62898,-0.58068,-0.67288,-0.53677,-0.31283,0.047229,0.22726,0.4512,0.53901,0.22726,0.091138,0.22726,-0.044981,-0.1328,-0.22501,-0.35674,-0.35674,-0.53677,-0.7607,-0.85291
0.5337,0.64235,0.56992,0.49386,0.64235,0.56992,0.60613,0.56992,0.64235,0.56992,0.64235,0.60613,0.8669,1.2363,1.6057,1.6456,1.1639,0.71841,0.64235,0.75463,0.60613,0.45764,0.42143,0.38521,0.49386,0.5337,0.56992,0.64235,0.82706,0.93933,2.1997,4.2025,4.5719,-0.32103,-1.2844,-0.54196,0.12444,0.56992,0.71841,0.75463,0.82706,0.90312,0.82706,0.90312,1.0154,0.93933,1.0516,0.97555,1.0516,1.0878,1.1639,1.1639,1.0878,1.2363,1.421,1.5333,1.5333,1.6818,1.8665,1.9788,2.1273,2.091,2.1635,2.0512,1.9426,1.6818,1.3848,1.1639,0.90312,0.75463,0.5337,0.42143,0.45764,0.38521,0.30915,0.23672,0.19688,0.12444,0.088226,0.19688,0.19688,0.16066,0.088226,0.16066,0.048386,0.012169,-0.060266,-0.13632,-0.20876,-0.24497,-0.32103,-0.35725,-0.17254,0.16066,0.5337,0.56992,0.19688,-0.24497,-0.43331,-0.46952,-0.54196,-0.65423,-0.76651,-0.80272,-0.69045,-0.65423,-0.69045,-0.73029,-0.5818,-0.46952,0.30915,2.091,3.0146,-0.5818,-2.6933,-2.3601,-1.6176,-1.1359,-0.80272,-0.76651,-0.69045,-0.73029,-0.65423,-0.69045,-0.69045,-0.73029,-0.69045,-0.73029,-0.65423,-0.65423,-0.65423,-0.65423,-0.5818,-0.61801,-0.50574,-0.43331,-0.32103,-0.17254,-0.024048,0.048386,0.048386,0.19688,0.12444,0.16066,-0.060266,-0.20876,-0.43331,-0.69045,-0.915,-1.0236,-1.2482,-1.2844,-1.3206,-1.4329,-1.3967,-1.4691,-1.3605,-1.3967,-1.2844,-1.212,-1.1359,-1.0635,-0.98743,-1.0236,-0.915,-0.83894,-0.915,-0.95121,-0.87516,-0.83894,-0.915,-0.95121,-0.80272,-0.87516,-0.83894,-0.5818,-0.35725,0.012169,0.23672,0.088226,-0.43331,-0.65423,-0.65423,-0.69045,-0.83894,-0.95121,-0.98743,-0.83894,-0.87516,-0.83894,-0.83894,-0.69045,-0.54196,-0.1001,1.3486,2.7212,0.12444,-2.3239,-2.4325,-1.4691,-0.98743,-0.61801,-0.46952,-0.43331,-0.39347,-0.43331,-0.35725,-0.32103,-0.35725,-0.35725,-0.24497,-0.32103,-0.24497,-0.20876,-0.17254,-0.13632,-0.060266,-0.024048,0.088226,0.16066,0.34537,0.42143,0.56992,0.71841,0.75463,0.71841,0.75463,0.5337,0.38521,0.19688,-0.024048,-0.20876,-0.39347,-0.50574,-0.65423,-0.73029,-0.80272,-0.73029,-0.83894,-0.69045,-0.65423,-0.5818,-0.54196,-0.46952,-0.50574,-0.46952,-0.43331,-0.32103,-0.43331,-0.39347
-0.86731,-0.90922,-0.90922,-0.99721,-0.95112,-0.99721,-1.0391,-0.82541,-0.56561,-0.222,0.07551,-0.1801,-0.69551,-1.0391,-0.99721,-1.081,-1.169,-1.3408,-1.3827,-1.2528,-1.2528,-1.2109,-1.1229,-1.0391,-0.82541,-0.52371,1.0225,2.8663,0.72082,-2.6691,-2.9709,-1.9819,-1.3827,-0.99721,-0.82541,-0.73741,-0.77932,-0.65361,-0.65361,-0.6117,-0.6117,-0.65361,-0.6117,-0.4399,-0.4818,-0.39381,-0.39381,-0.3519,-0.222,-0.1382,-0.0502,0.07551,0.1216,0.24731,0.46102,0.50711,0.59092,0.54902,0.63282,0.46102,0.37721,0.07551,-0.1382,-0.3519,-0.56561,-0.77932,-0.86731,-0.95112,-1.0391,-1.169,-1.2109,-1.081,-0.99721,-0.86731,-0.82541,-0.86731,-0.69551,-0.73741,-0.65361,-0.6117,-0.65361,-0.6117,-0.6117,-0.52371,-0.65361,-0.65361,-0.73741,-0.77932,-0.73741,-0.77932,-0.73741,-0.52371,-0.31,0.1216,0.24731,0.033606,-0.52371,-0.73741,-0.69551,-0.82541,-0.86731,-1.0391,-1.0391,-0.86731,-0.86731,-0.86731,-0.86731,-0.73741,-0.52371,0.1216,1.7935,3.2099,0.33531,-2.4973,-2.5812,-1.4246,-0.82541,-0.56561,-0.39381,-0.31,-0.2681,-0.222,-0.2681,-0.31,-0.222,-0.222,-0.1801,-0.222,-0.096293,-0.0082968,-0.096293,0.1216,0.16351,0.37721,0.46102,0.54902,0.67892,0.89262,1.0644,1.1901,1.1482,1.2781,1.3619,1.2362,1.0225,0.89262,0.59092,0.41912,0.16351,-0.0502,-0.222,-0.31,-0.39381,-0.4399,-0.3519,-0.39381,-0.222,-0.1801,-0.0502,-0.096293,0.07551,0.1216,0.28922,0.16351,0.20541,0.28922,0.28922,0.24731,0.28922,0.24731,0.28922,0.37721,0.46102,0.28922,0.24731,0.37721,0.46102,0.85072,1.2362,1.5798,1.408,0.80462,0.59092,0.54902,0.41912,0.46102,0.16351,0.20541,0.24731,0.33531,0.28922,0.33531,0.54902,0.59092,1.1482,2.9082,4.7938,2.221,-1.4665,-1.852,-0.77932,0.033606,0.33531,0.33531,0.59092,0.54902,0.72082,0.67892,0.76272,0.80462,0.89262,0.76272,0.93452,0.89262,0.97643,1.1063,1.0644,1.1482,1.1901,1.1482,1.408,1.4499,1.7935,1.9653,1.9653,2.179,2.2629,2.179,2.1371,1.9234,1.7055,1.2781,1.0225,0.80462,0.46102,0.37721,0.28922,0.1216,-0.0502,-0.0502,-0.096293,-0.096293,-0.096293,-0.0502,-0.1801,-0.222,-0.222,-0.31,-0.4399,-0.39381
0.48109,0.38248,0.22964,0.18033,0.081727,-0.021812,-0.071116,-0.22396,-0.22396,-0.32257,-0.42611,-0.12042,0.13103,0.58463,0.93962,0.78678,0.13103,-0.42611,-0.42611,-0.57895,-0.57895,-0.77617,-0.8304,-0.77617,-0.77617,-0.72686,-0.77617,-0.62825,-0.27326,0.13103,2.049,4.317,1.4425,-3.0984,-3.5569,-2.2947,-1.4861,-0.97831,-0.77617,-0.72686,-0.62825,-0.57895,-0.67756,-0.67756,-0.67756,-0.62825,-0.67756,-0.57895,-0.57895,-0.47541,-0.47541,-0.3768,-0.32257,-0.17466,-0.17466,-0.021812,0.18033,0.33318,0.53532,0.73747,0.73747,0.78678,0.73747,0.53532,0.38248,0.081727,-0.22396,-0.47541,-0.67756,-0.92901,-1.1805,-1.2347,-1.1805,-1.2347,-1.1805,-1.2347,-1.1805,-1.1805,-1.0325,-0.92901,-0.92901,-0.8304,-0.77617,-0.72686,-0.62825,-0.67756,-0.67756,-0.72686,-0.77617,-0.67756,-0.72686,-0.62825,-0.67756,-0.62825,-0.67756,-0.62825,-0.62825,-0.57895,-0.42611,0.027492,0.48109,0.68324,0.33318,-0.27326,-0.42611,-0.47541,-0.52471,-0.77617,-0.8797,-0.8304,-0.72686,-0.77617,-0.62825,-0.67756,-0.32257,-0.27326,0.73747,2.9562,4.0655,-0.57895,-2.7976,-2.2405,-1.2347,-0.62825,-0.27326,-0.22396,-0.071116,-0.021812,-0.021812,0.081727,0.13103,0.081727,0.027492,0.22964,0.18033,0.27894,0.22964,0.33318,0.33318,0.33318,0.53532,0.63393,0.78678,0.93962,1.0875,1.1911,1.339,1.4425,1.339,1.3932,1.1911,1.0382,0.68324,0.43179,0.18033,-0.071116,-0.22396,-0.32257,-0.42611,-0.42611,-0.52471,-0.47541,-0.42611,-0.42611,-0.3768,-0.27326,-0.22396,-0.17466,-0.071116,-0.12042,0.18033,-0.021812,0.081727,-0.021812,-0.021812,-0.071116,-0.12042,-0.021812,-0.071116,-0.021812,-0.17466,-0.021812,0.38248,0.83608,1.1911,1.0875,0.33318,-0.021812,-0.021812,-0.12042,-0.32257,-0.32257,-0.3768,-0.32257,-0.27326,-0.22396,-0.12042,-0.17466,0.22964,0.53532,1.8961,4.317,4.5191,-1.4368,-2.1912,-1.284,-0.52471,0.027492,0.22964,0.43179,0.43179,0.48109,0.53532,0.48109,0.53532,0.48109,0.58463,0.48109,0.63393,0.58463,0.73747,0.73747,0.73747,0.78678,0.98892,0.98892,0.93962,1.339,1.4918,1.5954,1.7433,1.7975,1.7433,1.6447,1.5411,1.1911,0.88538,0.58463,0.27894,0.18033,0.081727,-0.071116,-0.17466,-0.22396,-0.12042,-0.17466,-0.12042,-0.12042,-0.071116,-0.021812
0.53366,0.67165,0.87238,0.73856,0.60056,0.46675,0.53366,-0.0099693,-0.28178,-0.6205,-0.5536,-0.7585,-0.6205,-0.7585,-0.6205,-0.4156,0.67165,1.8258,2.5033,1.6878,1.1442,2.0307,2.7751,1.6878,-0.5536,-1.6408,-1.9796,-1.1641,-0.4156,-0.34869,-0.89232,-0.7585,-0.7585,-0.6205,-0.7585,-0.5536,-0.6205,-0.4156,-0.48669,-0.28178,-0.21487,-0.0099693,0.056939,-0.0099693,0.26184,0.19494,0.53366,0.73856,0.87238,0.94347,1.2153,1.1442,1.4871,1.4871,1.6878,1.554,1.7589,1.6878,1.8258,1.4871,1.2822,0.87238,0.73856,0.26184,0.12803,-0.21487,-0.28178,-0.4156,-0.48669,-0.68741,-0.5536,-0.68741,-0.7585,-0.5536,-0.68741,-0.5536,-0.7585,-0.5536,-0.68741,-0.5536,-0.7585,-0.6205,-0.7585,-0.5536,-0.68741,-0.6205,-0.68741,-0.5536,-0.68741,-0.5536,-0.68741,-0.6205,-0.5536,-0.68741,-0.48669,-0.68741,-0.5536,-0.6205,-0.48669,-0.7585,-0.4156,-0.21487,-0.0099693,0.056939,0.26184,0.39984,0.67165,0.60056,0.46675,0.26184,0.39984,-0.0099693,-0.28178,-0.7585,-0.68741,-0.89232,-0.82541,-0.95922,-0.82541,-0.68741,0.056939,1.3491,2.5743,2.7751,1.2822,1.6878,2.7082,2.0976,0.12803,-1.7747,-2.5901,-1.9796,-0.89232,-0.48669,-1.0303,-1.0972,-1.0303,-0.82541,-1.0303,-0.82541,-0.89232,-0.6205,-0.5536,-0.4156,-0.34869,-0.4156,-0.14378,-0.076877,0.056939,0.19494,0.32875,0.26184,0.46675,0.53366,0.80547,0.87238,1.0104,1.0773,1.416,1.3491,1.6209,1.554,1.7589,1.554,1.4871,1.2153,0.94347,0.53366,0.32875,-0.0099693,-0.14378,-0.4156,-0.4156,-0.6205,-0.68741,-0.48669,-0.68741,-0.5536,-0.7585,-0.5536,-0.6205,-0.5536,-0.68741,-0.5536,-0.7585,-0.5536,-0.68741,-0.5536,-0.6205,-0.5536,-0.6205,-0.4156,-0.5536,-0.48669,-0.6205,-0.5536,-0.48669,-0.5536,-0.34869,-0.14378,0.056939,0.19494,0.39984,0.26184,0.26184,0.19494,0.32875,-0.14378,-0.076877,-0.28178,-0.21487,-0.5536,-0.5536,-0.7585,-0.6205,-0.7585,-0.6205,-0.5536,0.19494,1.6209,2.9131,3.118,1.6878,1.6209,2.7082,2.0976,0.056939,-1.9127,-2.6612,-2.1845,-1.1641,-0.68741,-1.0303,-0.89232,-0.7585,-0.6205,-0.7585,-0.48669,-0.5536,-0.34869,-0.4156,-0.21487,-0.14378,-0.0099693,-0.0099693,0.12803,0.26184,0.46675,0.53366,0.80547
1.0689,1.2921,1.4425,1.5883,1.8115,1.8844,2.1076,2.0347,2.2534,2.1076,2.2534,1.8844,1.7386,1.2192,1.0689,0.55409,0.33086,-0.11561,-0.1885,-0.55752,-0.63041,-0.78075,-0.78075,-0.70786,-0.92654,-0.70786,-1.004,-0.70786,-0.85364,-0.70786,-0.85364,-0.70786,-0.78075,-0.70786,-0.78075,-0.70786,-0.70786,-0.70786,-0.70786,-0.63041,-0.70786,-0.55752,-0.70786,-0.55752,-0.70786,-0.70786,-0.70786,-0.48463,-0.63041,-0.70786,-0.48463,-0.63041,-0.41173,-0.63041,-0.33428,-0.55752,-0.41173,-0.48463,0.10763,0.25797,0.55409,0.40375,0.77277,0.85022,1.0689,0.62698,0.69988,0.55409,0.40375,-0.1885,-0.33428,-0.63041,-0.70786,-0.78075,-0.70786,-0.78075,-0.48463,0.25797,1.5883,2.6999,2.7728,1.2921,1.1463,3.0689,2.2534,0.25797,-1.9653,-2.2614,-1.8924,-0.48463,-0.41173,-0.92654,-1.004,-0.70786,-0.85364,-0.70786,-0.63041,-0.70786,-0.48463,-0.55752,-0.26139,-0.11561,-0.11561,-0.33428,-0.48463,-0.70786,-0.63041,-0.70786,-0.63041,-0.70786,-0.63041,-0.70786,-0.48463,-0.63041,-0.48463,-0.70786,-0.48463,-0.63041,-0.48463,-0.70786,-0.55752,-0.48463,-0.63041,-0.48463,-0.63041,-0.55752,-0.70786,-0.41173,-0.63041,-0.41173,-0.55752,-0.41173,-0.55752,-0.41173,-0.55752,-0.41173,-0.48463,-0.26139,0.034733,0.33086,0.25797,0.55409,0.62698,0.92311,1.0689,0.62698,0.40375,0.40375,0.034733,-0.33428,-0.70786,-0.78075,-0.92654,-1.004,-0.92654,-1.004,-0.63041,0.10763,1.5154,2.4037,2.5495,1.0689,1.8844,2.9231,2.2534,-0.26139,-1.8149,-2.4072,-1.5962,-0.63041,-0.41173,-1.004,-0.78075,-0.63041,-0.85364,-0.70786,-0.78075,-0.55752,-0.63041,-0.33428,-0.33428,-0.1885,-0.11561,0.034733,0.10763,0.40375,0.33086,0.69988,0.69988,1.0689,1.0689,1.365,1.4425,1.7386,1.7386,1.9573,1.8844,2.1076,1.9573,2.0347,1.8115,1.5883,1.2921,0.92311,0.62698,0.25797,0.034733,-0.26139,-0.33428,-0.48463,-0.41173,-0.70786,-0.55752,-0.70786,-0.48463,-0.63041,-0.48463,-0.70786,-0.48463,-0.55752,-0.41173,-0.55752,-0.63041,-0.41173,-0.55752,-0.33428,-0.48463,-0.33428,-0.48463,-0.33428,-0.41173,-0.26139,-0.33428,-0.26139,-0.33428,-0.26139,-0.41173,-0.33428,-0.41173,-0.33428,-0.33428,-0.1885,-0.11561,0.25797,0.40375,0.55409,0.62698,0.92311,1.0689,0.85022
0.47274,0.40588,0.20112,-0.13737,-0.61375,-0.75165,-0.68061,-0.95223,-0.81851,-0.95223,-0.68061,-0.48003,0.60646,1.6929,2.3072,1.2207,0.87808,1.8977,2.5078,1.0828,-1.0233,-2.1098,-2.3103,-1.157,-0.40899,-0.75165,-0.95223,-0.81851,-0.75165,-0.75165,-0.81851,-0.68061,-0.81851,-0.61375,-0.54689,-0.34213,-0.40899,-0.27527,-0.34213,-0.0036439,-0.070505,0.26798,0.33484,0.60646,0.5396,0.87808,0.87808,1.2207,1.2207,1.4213,1.4924,1.5592,1.6261,1.5592,1.6261,1.4213,1.2207,0.94912,0.6775,0.26798,0.13426,-0.20841,-0.34213,-0.61375,-0.54689,-0.75165,-0.68061,-0.81851,-0.68061,-0.81851,-0.75165,-0.81851,-0.75165,-0.75165,-0.68061,-0.75165,-0.75165,-0.61375,-0.75165,-0.61375,-0.75165,-0.61375,-0.75165,-0.61375,-0.75165,-0.54689,-0.68061,-0.48003,-0.61375,-0.40899,-0.54689,-0.40899,-0.54689,-0.40899,-0.48003,-0.34213,-0.40899,-0.27527,-0.070505,0.26798,0.33484,0.26798,0.5396,0.6775,0.87808,0.47274,0.5396,0.47274,0.13426,-0.34213,-0.40899,-0.61375,-0.54689,-0.75165,-0.68061,-0.75165,-0.13737,0.60646,2.3072,3.2558,2.6457,1.8308,2.5789,2.9842,1.6261,-0.75165,-1.9719,-2.3814,-1.5665,-0.68061,-0.61375,-0.88537,-1.0233,-0.68061,-0.81851,-0.68061,-0.75165,-0.54689,-0.61375,-0.34213,-0.40899,-0.20841,-0.13737,0.13426,0.063217,0.26798,0.26798,0.5396,0.60646,0.87808,0.94912,1.2207,1.4213,1.3545,1.6929,1.6261,1.9646,1.8977,2.0356,1.8977,1.9646,1.4924,1.1497,0.74436,0.5396,0.13426,-0.0036439,-0.27527,-0.34213,-0.54689,-0.48003,-0.75165,-0.54689,-0.75165,-0.68061,-0.75165,-0.68061,-0.61375,-0.75165,-0.61375,-0.75165,-0.48003,-0.61375,-0.48003,-0.68061,-0.48003,-0.61375,-0.40899,-0.48003,-0.40899,-0.54689,-0.48003,-0.54689,-0.34213,-0.48003,-0.34213,-0.48003,-0.40899,-0.48003,-0.34213,-0.40899,-0.34213,-0.27527,0.13426,0.26798,0.33484,0.47274,0.60646,0.81122,0.81122,0.60646,0.47274,0.5396,-0.0036439,-0.27527,-0.54689,-0.54689,-0.75165,-0.75165,-0.81851,-0.61375,-0.48003,0.40588,1.3545,2.3741,1.6929,1.016,1.8977,3.1221,2.1693,-0.070505,-1.6334,-1.9719,-1.2949,-0.34213,-0.20841,-0.88537,-0.81851,-0.81851,-0.68061,-0.75165,-0.61375,-0.75165,-0.40899,-0.48003,-0.20841,-0.34213,-0.070505,-0.070505,0.063217
-0.589,-0.73385,-0.65909,-0.51892,-0.44416,-0.589,-0.56564,-0.44416,-0.32735,-0.22923,-0.32735,-0.4208,-0.37407,-0.39743,-0.25259,-0.22923,-0.22923,-0.15914,-0.11242,-0.084384,-0.15914,-0.22923,-0.20587,-0.1825,-0.29931,-0.32735,-0.25259,-0.27595,-0.32735,-0.32735,-0.32735,-0.32735,-0.32735,-0.29931,-0.32735,-0.22923,-0.27595,-0.22923,-0.20587,-0.15914,-0.13578,-0.11242,-0.13578,-0.1825,-0.15914,-0.13578,-0.15914,-0.15914,-0.11242,-0.061022,0.0090645,0.13055,0.055789,0.13055,0.224,0.13055,0.0090645,0.0090645,-0.014298,-0.03766,-0.13578,-0.22923,-0.32735,-0.35071,-0.39743,-0.39743,-0.39743,-0.35071,-0.27595,0.51368,2.7097,4.8403,5.0553,3.476,1.9248,1.1818,0.48565,-0.1825,-0.46752,-0.56564,-0.63573,-0.65909,-0.63573,-0.63573,-0.56564,-0.54228,-0.56564,-0.49088,-0.44416,-0.39743,-0.4208,-0.35071,-0.32735,-0.29931,-0.27595,-0.25259,-0.22923,-0.22923,-0.25259,-0.15914,-0.1825,-0.11242,-0.11242,-0.15914,-0.20587,-0.22923,-0.25259,-0.27595,-0.32735,-0.29931,-0.35071,-0.32735,-0.35071,-0.32735,-0.32735,-0.32735,-0.32735,-0.29931,-0.25259,-0.25259,-0.22923,-0.25259,-0.20587,-0.20587,-0.1825,-0.20587,-0.15914,-0.20587,-0.1825,-0.20587,-0.20587,-0.1825,-0.061022,0.032427,0.13055,0.079151,0.13055,0.13055,0.17727,0.055789,0.055789,-0.084384,-0.061022,-0.11242,-0.20587,-0.29931,-0.44416,-0.44416,-0.44416,-0.44416,-0.4208,-0.39743,-0.13578,1.1118,3.6909,5.2001,4.7189,2.9293,1.5883,0.99027,0.20063,-0.37407,-0.56564,-0.65909,-0.65909,-0.65909,-0.65909,-0.61237,-0.63573,-0.589,-0.54228,-0.54228,-0.44416,-0.44416,-0.37407,-0.35071,-0.32735,-0.27595,-0.29931,-0.22923,-0.22923,-0.20587,-0.25259,-0.20587,-0.15914,-0.11242,-0.13578,-0.1825,-0.22923,-0.22923,-0.27595,-0.32735,-0.35071,-0.37407,-0.35071,-0.35071,-0.35071,-0.32735,-0.32735,-0.35071,-0.32735,-0.25259,-0.29931,-0.25259,-0.22923,-0.22923,-0.20587,-0.20587,-0.22923,-0.1825,-0.1825,-0.20587,-0.22923,-0.20587,-0.1825,-0.084384,0.032427,0.13055,0.13055,0.13055,0.15391,0.17727,0.10719,0.032427,-0.061022,-0.03766,-0.084384,-0.1825,-0.35071,-0.4208,-0.37407,-0.35071,-0.4208,-0.4208,-0.39743,-0.25259,0.94355,3.3358,5.102,4.7189,3.1162,1.565,1.0604,0.224,-0.35071,-0.589,-0.65909,-0.65909,-0.65909,-0.61237
-0.61786,-0.54689,-0.54689,-0.49958,-0.52323,-0.42388,-0.40022,-0.32925,-0.27721,-0.32925,-0.25356,-0.2299,-0.2299,-0.20624,-0.20624,-0.15893,-0.18259,-0.087963,-0.087963,-0.087963,-0.13527,-0.20624,-0.2299,-0.2299,-0.27721,-0.3056,-0.3056,-0.3056,-0.3056,-0.3056,-0.27721,-0.3056,-0.27721,-0.3056,-0.20624,-0.25356,-0.20624,-0.20624,-0.20624,-0.18259,-0.20624,-0.15893,-0.20624,-0.15893,-0.18259,-0.20624,-0.15893,-0.15893,-0.035919,0.058705,0.15806,0.15806,0.18172,0.20537,0.22903,0.10602,0.035049,-0.012263,-0.087963,-0.087963,-0.2299,-0.32925,-0.42388,-0.40022,-0.42388,-0.37657,-0.42388,-0.40022,-0.035919,1.4639,4.0802,5.1448,4.5155,2.6514,1.4875,0.85828,0.058705,-0.42388,-0.61786,-0.64151,-0.64151,-0.64151,-0.64151,-0.64151,-0.57055,-0.54689,-0.52323,-0.54689,-0.42388,-0.44754,-0.37657,-0.35291,-0.42388,-0.3056,-0.25356,-0.2299,-0.20624,-0.20624,-0.20624,-0.20624,-0.18259,-0.087963,-0.13527,-0.18259,-0.20624,-0.3056,-0.35291,-0.32925,-0.42388,-0.44754,-0.42388,-0.32925,-0.35291,-0.32925,-0.3056,-0.27721,-0.27721,-0.25356,-0.25356,-0.2299,-0.20624,-0.25356,-0.20624,-0.2299,-0.20624,-0.20624,-0.27721,-0.27721,-0.35291,-0.2299,-0.11162,0.011393,0.15806,0.18172,0.1344,0.035049,0.058705,0.1344,0.011393,-0.11162,-0.18259,-0.11162,-0.087963,-0.37657,-0.47119,-0.54689,-0.47119,-0.35291,-0.3056,-0.42388,-0.27721,0.85828,3.2097,4.9035,4.9271,2.9164,1.4875,1.1232,0.39935,-0.27721,-0.66517,-0.74087,-0.69356,-0.76453,-0.74087,-0.5942,-0.57055,-0.64151,-0.54689,-0.52323,-0.64151,-0.52323,-0.40022,-0.44754,-0.35291,-0.40022,-0.42388,-0.32925,-0.27721,-0.27721,-0.20624,-0.18259,-0.11162,-0.18259,-0.15893,-0.20624,-0.27721,-0.32925,-0.2299,-0.25356,-0.27721,-0.25356,-0.32925,-0.35291,-0.32925,-0.35291,-0.3056,-0.32925,-0.32925,-0.3056,-0.27721,-0.25356,-0.20624,-0.18259,-0.20624,-0.15893,-0.13527,-0.15893,-0.11162,-0.11162,-0.13527,-0.15893,-0.087963,0.035049,0.10602,0.15806,0.058705,0.035049,0.15806,0.1344,0.058705,0.035049,0.011393,-0.087963,-0.18259,-0.27721,-0.40022,-0.32925,-0.3056,-0.35291,-0.3056,-0.35291,-0.059575,1.3409,3.8389,5.1684,4.5865,2.8927,1.5632,1.0523,0.22903,-0.25356,-0.44754,-0.52323,-0.5942,-0.61786,-0.54689,-0.52323,-0.49958,-0.42388
-0.51166,-0.46475,-0.44129,-0.41784,-0.36623,-0.31932,-0.29586,-0.29586,-0.29586,-0.27241,-0.24895,-0.17858,-0.17858,-0.15044,-0.12698,-0.15044,-0.17858,-0.15044,-0.17858,-0.24895,-0.29586,-0.29586,-0.27241,-0.31932,-0.34278,-0.36623,-0.31932,-0.29586,-0.34278,-0.36623,-0.29586,-0.29586,-0.29586,-0.27241,-0.20204,-0.20204,-0.17858,-0.20204,-0.15044,-0.2255,-0.17858,-0.17858,-0.17858,-0.2255,-0.17858,-0.080069,0.065358,0.13573,0.15918,0.088814,0.13573,0.15918,0.013755,-0.0097014,-0.080069,-0.056613,-0.17858,-0.27241,-0.41784,-0.41784,-0.44129,-0.39438,-0.44129,-0.36623,-0.39438,0.041902,1.6979,4.264,5.1084,4.339,2.4157,1.3367,0.75966,-0.0097014,-0.4882,-0.63363,-0.704,-0.65709,-0.65709,-0.61018,-0.63363,-0.61018,-0.53512,-0.51166,-0.41784,-0.46475,-0.39438,-0.36623,-0.31932,-0.29586,-0.24895,-0.29586,-0.24895,-0.2255,-0.17858,-0.17858,-0.12698,-0.15044,-0.12698,-0.20204,-0.2255,-0.20204,-0.29586,-0.29586,-0.34278,-0.36623,-0.34278,-0.34278,-0.36623,-0.31932,-0.34278,-0.29586,-0.31932,-0.29586,-0.29586,-0.24895,-0.29586,-0.24895,-0.2255,-0.17858,-0.17858,-0.17858,-0.2255,-0.20204,-0.17858,-0.20204,-0.15044,-0.0097014,0.065358,0.13573,0.088814,0.13573,0.22955,0.13573,0.041902,0.013755,-0.033157,-0.056613,-0.10353,-0.2255,-0.31932,-0.41784,-0.39438,-0.41784,-0.36623,-0.36623,-0.39438,0.041902,1.7448,4.339,5.1084,4.264,2.4673,1.3601,0.80657,0.041902,-0.4882,-0.58672,-0.63363,-0.63363,-0.63363,-0.61018,-0.58672,-0.55857,-0.53512,-0.4882,-0.46475,-0.4882,-0.36623,-0.34278,-0.31932,-0.31932,-0.27241,-0.24895,-0.20204,-0.17858,-0.20204,-0.17858,-0.12698,-0.080069,-0.056613,-0.12698,-0.17858,-0.20204,-0.24895,-0.31932,-0.29586,-0.27241,-0.31932,-0.34278,-0.31932,-0.34278,-0.36623,-0.34278,-0.27241,-0.29586,-0.24895,-0.27241,-0.20204,-0.17858,-0.17858,-0.17858,-0.20204,-0.2255,-0.2255,-0.20204,-0.2255,-0.17858,-0.080069,0.013755,0.065358,0.11227,0.065358,0.15918,0.18264,0.13573,0.013755,-0.033157,-0.056613,-0.056613,-0.12698,-0.27241,-0.41784,-0.44129,-0.39438,-0.39438,-0.39438,-0.36623,-0.39438,0.20609,2.1529,4.6252,5.1084,3.9778,2.2233,1.3367,0.68929,-0.10353,-0.4882,-0.63363,-0.65709,-0.68054,-0.63363,-0.63363,-0.61018,-0.55857,-0.61018,-0.51166,-0.44129,-0.39438
-0.15143,-0.35069,-0.55276,-0.63976,-0.72395,-0.66782,-0.66782,-0.55276,-0.60889,-0.20756,1.1704,3.8141,5.136,2.8936,0.16571,-1.0411,-1.1281,-0.95408,-0.83902,-0.81095,-0.75482,-0.75482,-0.66782,-0.66782,-0.58082,-0.55276,-0.43769,-0.46575,-0.26649,-0.23562,-0.064426,0.05064,0.16571,0.30884,0.48284,0.62597,0.79717,0.91223,0.99923,0.9403,0.88417,0.7691,0.6821,0.51091,0.36777,0.16571,-0.064426,-0.20756,-0.38156,-0.46575,-0.58082,-0.58082,-0.66782,-0.60889,-0.63976,-0.66782,-0.58082,-0.52469,-0.55276,-0.52469,-0.58082,-0.49663,-0.52469,-0.43769,-0.49663,-0.55276,-0.49663,-0.43769,-0.43769,-0.43769,-0.23562,-0.064426,0.05064,-0.0054895,0.16571,0.078705,-0.064426,-0.20756,-0.17949,-0.35069,-0.52469,-0.72395,-0.72395,-0.69589,-0.58082,-0.60889,-0.55276,-0.58082,0.19377,2.0629,4.4765,4.7908,1.3136,-0.60889,-1.1562,-1.013,-0.81095,-0.72395,-0.66782,-0.60889,-0.63976,-0.55276,-0.58082,-0.43769,-0.43769,-0.32262,-0.26649,-0.12056,-0.092491,0.05064,0.10677,0.28077,0.4239,0.65404,0.7691,0.9403,1.0273,1.0554,0.97117,0.9403,0.88417,0.71017,0.53897,0.3369,0.16571,-0.0054895,-0.20756,-0.29456,-0.29456,-0.40962,-0.43769,-0.43769,-0.43769,-0.52469,-0.40962,-0.38156,-0.38156,-0.38156,-0.32262,-0.35069,-0.32262,-0.38156,-0.32262,-0.35069,-0.35069,-0.32262,-0.32262,-0.32262,-0.29456,-0.092491,-0.0054895,0.13764,0.10677,0.22184,0.22184,0.05064,-0.092491,-0.036361,-0.20756,-0.40962,-0.52469,-0.55276,-0.52469,-0.46575,-0.58082,-0.52469,-0.40962,0.22184,1.9478,4.2155,4.7038,1.4876,-0.52469,-1.1281,-0.92602,-0.78289,-0.66782,-0.69589,-0.58082,-0.58082,-0.52469,-0.55276,-0.43769,-0.38156,-0.26649,-0.29456,-0.17949,-0.092491,0.022575,0.10677,0.3369,0.45197,0.5951,0.7691,0.91223,1.0554,1.0862,1.0273,0.91223,0.8561,0.6821,0.5951,0.36777,0.16571,-0.064426,-0.17949,-0.29456,-0.35069,-0.43769,-0.52469,-0.58082,-0.58082,-0.55276,-0.58082,-0.49663,-0.43769,-0.43769,-0.40962,-0.43769,-0.40962,-0.32262,-0.35069,-0.32262,-0.38156,-0.32262,-0.38156,-0.32262,-0.32262,-0.15143,-0.064426,0.10677,0.10677,0.16571,0.22184,0.078705,-0.12056,-0.064426,-0.17949,-0.40962,-0.58082,-0.63976,-0.60889,-0.66782,-0.58082,-0.49663,-0.49663,-0.064426,1.3725,3.671,4.5607
2.3364,-0.086208,-1.1481,-1.0564,-0.84346,-0.75472,-0.72218,-0.57132,-0.6009,-0.57132,-0.54174,-0.42046,-0.42046,-0.29918,-0.29918,-0.20749,-0.11875,-0.027048,0.12381,0.24509,0.36637,0.57934,0.8219,0.94318,1.1236,1.094,1.0319,1.0023,0.94318,0.8219,0.66808,0.36637,0.18593,-0.027048,-0.14833,-0.2696,-0.39088,-0.45004,-0.48258,-0.57132,-0.48258,-0.57132,-0.48258,-0.42046,-0.48258,-0.48258,-0.45004,-0.39088,-0.42046,-0.42046,-0.39088,-0.3613,-0.42046,-0.39088,-0.39088,-0.3613,-0.39088,-0.20749,-0.056628,0.09423,0.03507,0.12381,0.24509,0.12381,-0.14833,-0.027048,-0.086208,-0.3613,-0.63344,-0.66302,-0.6926,-0.6009,-0.63344,-0.66302,-0.57132,-0.2696,0.94318,3.1824,5.1199,3.5462,0.48764,-1.1186,-1.299,-0.99727,-0.7843,-0.81388,-0.66302,-0.6926,-0.6009,-0.6009,-0.45004,-0.45004,-0.32876,-0.2696,-0.24002,-0.14833,0.002532,0.15339,0.24509,0.42848,0.60892,0.8219,0.94318,1.0645,1.1236,1.1857,1.1236,1.0645,0.85148,0.7302,0.51722,0.39595,0.15339,-0.027048,-0.14833,-0.2696,-0.3613,-0.39088,-0.48258,-0.51216,-0.45004,-0.51216,-0.45004,-0.48258,-0.42046,-0.42046,-0.39088,-0.42046,-0.42046,-0.39088,-0.29918,-0.32876,-0.29918,-0.39088,-0.39088,-0.32876,-0.17791,-0.027048,0.15339,0.15339,0.24509,0.30721,0.24509,0.002532,-0.027048,0.09423,-0.20749,-0.45004,-0.51216,-0.48258,-0.57132,-0.51216,-0.54174,-0.42046,-0.24002,0.70062,3.0315,5.6671,4.759,1.4874,-0.6009,-1.1186,-0.99727,-0.84346,-0.7843,-0.75472,-0.6926,-0.63344,-0.66302,-0.6009,-0.54174,-0.45004,-0.42046,-0.32876,-0.24002,-0.11875,0.002532,0.09423,0.27467,0.48764,0.6385,0.8219,1.0023,1.094,1.1236,1.0023,0.97276,0.8219,0.66808,0.48764,0.33679,0.12381,-0.056628,-0.2696,-0.29918,-0.45004,-0.51216,-0.54174,-0.51216,-0.48258,-0.57132,-0.51216,-0.54174,-0.45004,-0.42046,-0.42046,-0.45004,-0.42046,-0.42046,-0.3613,-0.39088,-0.39088,-0.42046,-0.39088,-0.42046,-0.24002,-0.027048,0.12381,0.15339,0.09423,0.27467,0.15339,-0.11875,-0.14833,0.002532,-0.3613,-0.6009,-0.66302,-0.63344,-0.63344,-0.57132,-0.57132,-0.57132,-0.29918,0.8219,3.1232,5.182,3.7888,0.66808,-0.93515,-1.1481,-0.96473,-0.81388,-0.75472,-0.66302,-0.63344,-0.57132,-0.57132,-0.51216,-0.48258
-0.4743,-0.40865,-0.34613,-0.21796,-0.089793,0.038376,0.16654,0.39162,0.51979,0.773,0.93556,1.095,1.095,1.1262,1.0293,0.96682,0.83865,0.71048,0.51979,0.26345,-0.024146,-0.15231,-0.31487,-0.37739,-0.53682,-0.57121,-0.60247,-0.66499,-0.63373,-0.53682,-0.50556,-0.60247,-0.50556,-0.50556,-0.44304,-0.50556,-0.50556,-0.53682,-0.40865,-0.44304,-0.37739,-0.44304,-0.44304,-0.40865,-0.24922,-0.058533,0.069636,0.1009,0.038376,0.22907,0.069636,-0.15231,-0.21796,-0.1867,-0.37739,-0.53682,-0.66499,-0.63373,-0.73064,-0.63373,-0.66499,-0.60247,-0.34613,0.71048,2.9831,5.1276,3.9428,0.71048,-1.0808,-1.3058,-1.1151,-0.89007,-0.82442,-0.7619,-0.69625,-0.73064,-0.60247,-0.57121,-0.50556,-0.44304,-0.31487,-0.24922,-0.15231,-0.058533,0.1009,0.19781,0.35724,0.51979,0.80739,0.93556,1.0637,1.1262,1.1575,1.095,0.99808,0.86991,0.71048,0.42288,0.19781,0.038376,-0.12105,-0.31487,-0.37739,-0.4743,-0.50556,-0.4743,-0.60247,-0.57121,-0.66499,-0.4743,-0.57121,-0.50556,-0.50556,-0.4743,-0.50556,-0.4743,-0.50556,-0.44304,-0.50556,-0.4743,-0.44304,-0.40865,-0.40865,-0.28048,-0.12105,0.0071149,0.1009,0.1009,0.22907,0.16654,-0.024146,-0.12105,-0.089793,-0.37739,-0.57121,-0.63373,-0.66499,-0.66499,-0.60247,-0.66499,-0.53682,-0.4743,0.42288,2.5017,5.062,5.2558,1.1919,-0.79316,-1.2433,-1.0182,-0.85881,-0.79316,-0.73064,-0.66499,-0.60247,-0.50556,-0.53682,-0.44304,-0.44304,-0.40865,-0.31487,-0.12105,-0.058533,0.069636,0.16654,0.39162,0.51979,0.74174,0.86991,0.99808,1.095,1.1575,1.1919,1.0293,0.90117,0.67922,0.55105,0.35724,0.13528,-0.058533,-0.21796,-0.37739,-0.40865,-0.50556,-0.50556,-0.50556,-0.53682,-0.60247,-0.50556,-0.50556,-0.44304,-0.50556,-0.44304,-0.40865,-0.44304,-0.37739,-0.40865,-0.50556,-0.40865,-0.34613,-0.37739,-0.37739,-0.31487,-0.058533,0.069636,0.22907,0.1009,0.19781,0.22907,0.13528,-0.12105,-0.089793,-0.24922,-0.4743,-0.66499,-0.66499,-0.63373,-0.66499,-0.66499,-0.57121,-0.53682,0.069636,1.7984,4.4868,5.1901,2.086,-0.40865,-1.2746,-1.1464,-0.92133,-0.82442,-0.82442,-0.66499,-0.73064,-0.60247,-0.57121,-0.50556,-0.44304,-0.37739,-0.21796,-0.12105,-0.12105,0.0071149,0.1009,0.35724,0.4854,0.74174,0.86991,1.095,1.1575
-0.40895,-0.36389,-0.34137,-0.36389,-0.40895,-0.34137,-0.31658,-0.29406,-0.29406,-0.15663,-0.039487,0.052878,0.028097,0.14299,0.052878,-0.17916,-0.29406,-0.15663,-0.27153,-0.45626,-0.52384,-0.54862,-0.50132,-0.47879,-0.52384,-0.52384,-0.47879,0.075406,1.9655,5.0789,5.5881,2.9117,-0.17916,-0.96314,-0.80094,-0.73336,-0.66352,-0.70858,-0.70858,-0.64099,-0.54862,-0.52384,-0.47879,-0.40895,-0.29406,-0.249,-0.20169,0.005569,0.12046,0.16777,0.28267,0.48993,0.55976,0.67466,0.78955,0.83686,0.78955,0.71971,0.60482,0.53498,0.39756,0.21283,0.14299,0.075406,-0.086797,-0.27153,-0.38642,-0.40895,-0.43148,-0.43148,-0.40895,-0.40895,-0.45626,-0.50132,-0.43148,-0.38642,-0.40895,-0.34137,-0.36389,-0.40895,-0.34137,-0.29406,-0.27153,-0.10932,0.005569,0.097935,0.028097,0.14299,0.005569,-0.22422,-0.249,-0.20169,-0.27153,-0.43148,-0.57115,-0.57115,-0.54862,-0.52384,-0.50132,-0.50132,-0.36389,0.42009,2.7968,5.5182,5.5881,1.3437,-0.73336,-0.94062,-0.73336,-0.70858,-0.66352,-0.64099,-0.66352,-0.61621,-0.54862,-0.47879,-0.52384,-0.38642,-0.29406,-0.20169,-0.15663,-0.016959,0.14299,0.23536,0.37503,0.51245,0.60482,0.69718,0.74449,0.65213,0.67466,0.58229,0.53498,0.53498,0.44487,0.21283,0.12046,-0.016959,-0.17916,-0.29406,-0.38642,-0.45626,-0.50132,-0.52384,-0.47879,-0.47879,-0.40895,-0.38642,-0.38642,-0.36389,-0.40895,-0.36389,-0.38642,-0.38642,-0.40895,-0.34137,-0.22422,-0.086797,-0.039487,0.075406,0.1903,0.23536,-0.17916,-0.249,-0.20169,-0.249,-0.43148,-0.52384,-0.59368,-0.61621,-0.52384,-0.52384,-0.50132,-0.45626,-0.249,0.85939,3.511,5.5407,3.9728,0.53498,-0.84825,-0.94062,-0.73336,-0.73336,-0.68605,-0.64099,-0.61621,-0.66352,-0.57115,-0.45626,-0.38642,-0.31658,-0.29406,-0.249,-0.13185,-0.016959,0.12046,0.21283,0.3525,0.48993,0.62735,0.67466,0.69718,0.71971,0.67466,0.58229,0.48993,0.42009,0.32772,0.23536,0.075406,-0.064268,-0.20169,-0.31658,-0.40895,-0.43148,-0.50132,-0.52384,-0.45626,-0.40895,-0.40895,-0.29406,-0.36389,-0.40895,-0.40895,-0.36389,-0.34137,-0.38642,-0.34137,-0.29406,-0.13185,-0.086797,0.005569,0.052878,0.14299,0.1903,-0.086797,-0.27153,-0.20169,-0.27153,-0.38642,-0.45626,-0.52384,-0.50132,-0.45626,-0.50132,-0.52384,-0.40895,-0.016959,1.2964
3.6118,4.7898,2.8071,0.082116,-0.86789,-0.88806,-0.64198,-0.66215,-0.6198,-0.57946,-0.55929,-0.49676,-0.55929,-0.43423,-0.33137,-0.33137,-0.33137,-0.16597,-0.10345,-0.020751,0.10229,0.22532,0.30802,0.49358,0.53594,0.61863,0.65897,0.65897,0.53594,0.45324,0.37054,0.41088,0.43307,0.12246,0.039759,-0.063108,-0.20833,-0.37372,-0.43423,-0.43423,-0.49676,-0.47659,-0.43423,-0.43423,-0.41406,-0.37372,-0.33137,-0.35154,-0.33137,-0.35154,-0.3112,-0.33137,-0.35154,-0.29103,-0.16597,-0.083277,-0.00058089,-0.00058089,0.10229,-0.020751,-0.18614,-0.2285,-0.2285,-0.26884,-0.41406,-0.5371,-0.5371,-0.55929,-0.5371,-0.4544,-0.43423,-0.39389,0.14263,2.0426,4.7272,4.935,1.9398,-0.37372,-0.86789,-0.74485,-0.68232,-0.70249,-0.64198,-0.55929,-0.57946,-0.57946,-0.51693,-0.4544,-0.35154,-0.33137,-0.24867,-0.10345,-0.12563,-0.020751,0.16481,0.33021,0.41088,0.49358,0.55611,0.59846,0.68116,0.61863,0.47341,0.41088,0.35038,0.30802,0.18498,-0.00058089,-0.10345,-0.18614,-0.29103,-0.43423,-0.47659,-0.49676,-0.5371,-0.47659,-0.43423,-0.39389,-0.4544,-0.43423,-0.39389,-0.39389,-0.35154,-0.41406,-0.37372,-0.43423,-0.37372,-0.24867,-0.16597,-0.020751,-0.042938,0.059929,0.082116,-0.2285,-0.3112,-0.20833,-0.3112,-0.49676,-0.5371,-0.59963,-0.6198,-0.55929,-0.5371,-0.5371,-0.51693,-0.16597,1.3004,3.985,4.935,2.8898,-0.00058089,-0.95058,-0.84772,-0.80738,-0.78519,-0.72468,-0.68232,-0.59963,-0.55929,-0.5371,-0.51693,-0.43423,-0.33137,-0.33137,-0.29103,-0.16597,-0.083277,0.039759,0.20515,0.30802,0.43307,0.53594,0.57628,0.61863,0.55611,0.51577,0.39071,0.41088,0.22532,0.12246,0.10229,-0.020751,-0.16597,-0.29103,-0.39389,-0.43423,-0.4544,-0.49676,-0.49676,-0.49676,-0.51693,-0.47659,-0.51693,-0.43423,-0.39389,-0.39389,-0.43423,-0.41406,-0.43423,-0.4544,-0.35154,-0.26884,-0.083277,0.019589,-0.042938,0.039759,-0.1458,-0.29103,-0.3112,-0.26884,-0.37372,-0.5371,-0.55929,-0.59963,-0.57946,-0.5371,-0.51693,-0.5371,-0.43423,0.26768,2.4158,4.7474,4.8725,1.0523,-0.64198,-0.88806,-0.74485,-0.70249,-0.70249,-0.68232,-0.66215,-0.64198,-0.57946,-0.5371,-0.4544,-0.43423,-0.35154,-0.24867,-0.18614,-0.020751,-0.00058089,0.082116,0.24751,0.33021,0.47341,0.51577,0.53594,0.59846,0.51577,0.43307
0.55706,0.58302,0.36589,0.21955,0.026019,-0.094351,-0.19112,-0.31149,-0.38465,-0.48142,-0.52863,-0.50502,-0.45546,-0.50502,-0.43186,-0.43186,-0.40826,-0.45546,-0.36105,-0.31149,-0.36105,-0.38465,-0.33509,-0.31149,-0.16752,-0.11795,0.12279,0.075583,0.051981,0.12279,-0.14155,-0.28789,-0.23832,-0.21472,-0.45546,-0.50502,-0.55223,-0.57819,-0.57819,-0.55223,-0.48142,-0.55223,-0.14155,1.2108,4.0124,5.6574,3.6749,0.38949,-0.9157,-0.86849,-0.77173,-0.74576,-0.649,-0.649,-0.649,-0.55223,-0.55223,-0.52863,-0.43186,-0.40826,-0.31149,-0.21472,-0.14155,-0.044787,0.17235,0.33992,0.43669,0.50986,0.63023,0.82376,0.70339,0.70339,0.63023,0.53346,0.48626,0.38949,0.26912,0.17235,0.026019,-0.094351,-0.23832,-0.40826,-0.50502,-0.50502,-0.48142,-0.55223,-0.50502,-0.48142,-0.45546,-0.48142,-0.50502,-0.45546,-0.43186,-0.43186,-0.36105,-0.40826,-0.43186,-0.31149,-0.21472,-0.11795,-0.044787,-0.070749,0.19595,0.051981,-0.21472,-0.28789,-0.14155,-0.31149,-0.43186,-0.55223,-0.60179,-0.55223,-0.52863,-0.57819,-0.55223,-0.45546,0.17235,2.1762,5.0768,5.5843,2.1053,-0.38465,-0.98886,-0.84253,-0.77173,-0.72216,-0.67496,-0.649,-0.60179,-0.649,-0.50502,-0.43186,-0.38465,-0.40826,-0.21472,-0.14155,-0.044787,0.12279,0.24316,0.26912,0.36589,0.55706,0.7506,0.84737,0.77656,0.7506,0.67979,0.60663,0.53346,0.41309,0.31632,0.21955,-0.044787,-0.21472,-0.19112,-0.38465,-0.48142,-0.43186,-0.52863,-0.45546,-0.48142,-0.52863,-0.48142,-0.45546,-0.40826,-0.36105,-0.33509,-0.31149,-0.33509,-0.36105,-0.40826,-0.19112,-0.094351,-0.021185,0.026019,0.075583,0.14639,-0.021185,-0.23832,-0.14155,-0.16752,-0.31149,-0.40826,-0.50502,-0.55223,-0.55223,-0.52863,-0.43186,-0.48142,-0.28789,0.727,3.4105,5.851,4.7393,1.0173,-0.79533,-0.9393,-0.79533,-0.72216,-0.62539,-0.67496,-0.649,-0.57819,-0.55223,-0.52863,-0.40826,-0.33509,-0.21472,-0.21472,-0.044787,0.026019,0.17235,0.36589,0.43669,0.55706,0.70339,0.63023,0.82376,0.87333,0.7506,0.67979,0.60663,0.43669,0.36589,0.21955,0.099185,0.0024168,-0.19112,-0.33509,-0.40826,-0.55223,-0.55223,-0.52863,-0.45546,-0.43186,-0.36105,-0.38465,-0.38465,-0.40826,-0.31149,-0.31149,-0.31149,-0.31149,-0.36105,-0.23832,-0.094351,-0.11795,0.026019,0.0024168,0.14639
-0.10102,0.031981,0.16498,0.40029,0.5026,0.70721,0.89137,1.1574,1.3415,1.4234,1.3108,1.1267,0.89137,0.55375,0.26729,0.083135,-0.049865,-0.15217,-0.25448,-0.33633,-0.43863,-0.43863,-0.43863,-0.46933,-0.40794,-0.52048,-0.46933,-0.52048,-0.43863,-0.46933,-0.48979,-0.48979,-0.43863,-0.40794,-0.23402,-0.10102,0.16498,0.31844,0.34914,0.11383,-0.049865,-0.17263,-0.33633,-0.46933,-0.54094,-0.52048,-0.5921,-0.5921,-0.65348,-0.57163,-0.62279,-0.52048,-0.23402,0.6049,2.5999,4.9479,5.0502,1.3415,-0.7251,-1.298,-1.0423,-0.93994,-0.90925,-0.93994,-0.90925,-0.93994,-0.93994,-0.8581,-0.80694,-0.70463,-0.70463,-0.70463,-0.5921,-0.52048,-0.40794,-0.33633,-0.17263,-0.070326,0.11383,0.29798,0.53329,0.68675,0.87091,0.97321,1.0755,1.1062,0.87091,0.6356,0.40029,0.11383,-0.10102,-0.33633,-0.43863,-0.46933,-0.48979,-0.57163,-0.57163,-0.5921,-0.57163,-0.54094,-0.5921,-0.57163,-0.57163,-0.52048,-0.5921,-0.52048,-0.48979,-0.43863,-0.52048,-0.23402,-0.15217,0.031981,0.18544,0.29798,0.16498,0.0012891,-0.12148,-0.23402,-0.33633,-0.43863,-0.43863,-0.48979,-0.57163,-0.57163,-0.62279,-0.57163,-0.46933,-0.28517,0.26729,1.894,4.3954,5.132,2.1804,-0.10102,-1.1753,-1.0423,-0.88879,-0.8581,-0.90925,-0.80694,-0.7251,-0.7251,-0.70463,-0.5921,-0.62279,-0.57163,-0.52048,-0.43863,-0.40794,-0.35679,-0.25448,-0.15217,-0.049865,0.16498,0.26729,0.4719,0.6356,0.87091,1.0244,1.2085,1.2392,1.1267,0.84021,0.6356,0.3696,0.13429,-0.019172,-0.17263,-0.28517,-0.30563,-0.35679,-0.35679,-0.38748,-0.40794,-0.38748,-0.43863,-0.35679,-0.43863,-0.43863,-0.46933,-0.40794,-0.48979,-0.48979,-0.52048,-0.33633,-0.23402,-0.12148,0.083135,0.26729,0.18544,0.031981,-0.17263,-0.20333,-0.33633,-0.43863,-0.48979,-0.54094,-0.57163,-0.57163,-0.57163,-0.57163,-0.54094,-0.33633,0.0012891,1.2392,3.6588,5.1832,3.1677,0.7686,-0.75579,-0.93994,-0.75579,-0.70463,-0.80694,-0.80694,-0.7251,-0.7251,-0.75579,-0.67394,-0.5921,-0.57163,-0.57163,-0.52048,-0.43863,-0.33633,-0.38748,-0.20333,-0.10102,0.083135,0.21614,0.45144,0.6356,0.87091,1.0244,1.1881,1.1574,1.1881,0.94252,0.7379,0.5026,0.29798,0.11383,-0.049865,-0.20333,-0.25448,-0.33633,-0.33633,-0.38748,-0.40794,-0.43863
-0.41991,-0.38845,-0.41991,-0.38845,-0.45136,-0.36748,-0.38845,-0.36748,-0.36748,-0.23118,-0.073899,0.062407,0.21968,0.43987,0.51327,0.33502,0.093863,0.0099818,-0.14729,-0.17875,-0.31506,-0.31506,-0.36748,-0.41991,-0.38845,-0.47233,-0.45136,-0.41991,-0.14729,0.43987,2.2853,4.723,5.1739,1.8344,-0.17875,-0.93368,-0.8498,-0.81834,-0.88125,-0.81834,-0.81834,-0.79737,-0.76592,-0.76592,-0.71349,-0.6401,-0.57718,-0.50379,-0.52476,-0.45136,-0.31506,-0.26263,-0.21021,-0.021474,0.16726,0.35599,0.54472,0.78588,0.97461,1.1633,1.2158,1.2682,1.1109,0.92219,0.54472,0.25114,0.0099818,-0.12632,-0.2836,-0.38845,-0.47233,-0.50379,-0.57718,-0.60864,-0.50379,-0.57718,-0.55621,-0.6401,-0.55621,-0.66107,-0.57718,-0.6401,-0.60864,-0.69252,-0.69252,-0.6401,-0.36748,-0.45136,-0.2836,-0.094869,-0.042444,-0.23118,-0.38845,-0.52476,-0.66107,-0.6401,-0.69252,-0.74495,-0.76592,-0.69252,-0.71349,-0.6401,-0.69252,-0.45136,-0.12632,0.89073,3.1712,5.2578,3.8108,1.3206,-0.66107,-0.95465,-0.74495,-0.60864,-0.66107,-0.57718,-0.55621,-0.50379,-0.52476,-0.33603,-0.2836,-0.26263,-0.23118,-0.17875,-0.14729,-0.073899,0.0099818,0.062407,0.16726,0.30356,0.4923,0.702,0.86976,0.99558,1.2158,1.3206,1.4255,1.2997,1.1109,0.83831,0.57618,0.25114,0.062407,-0.094869,-0.23118,-0.31506,-0.33603,-0.38845,-0.41991,-0.33603,-0.33603,-0.38845,-0.41991,-0.31506,-0.31506,-0.2836,-0.31506,-0.14729,-0.17875,-0.12632,-0.094869,0.11483,0.25114,0.33502,0.4923,0.64957,0.68103,0.4923,0.30356,0.16726,-0.042444,-0.14729,-0.23118,-0.2836,-0.26263,-0.33603,-0.38845,-0.41991,-0.33603,-0.36748,0.14629,1.2158,3.4334,5.5304,3.9996,1.2472,-0.69252,-1.0595,-0.79737,-0.74495,-0.79737,-0.79737,-0.79737,-0.76592,-0.71349,-0.69252,-0.6401,-0.66107,-0.55621,-0.50379,-0.52476,-0.50379,-0.38845,-0.2836,-0.17875,-0.042444,0.11483,0.30356,0.4923,0.73345,0.89073,1.0795,1.1633,1.2158,0.86976,0.57618,0.27211,0.093863,-0.12632,-0.2836,-0.45136,-0.47233,-0.60864,-0.57718,-0.55621,-0.60864,-0.6401,-0.6401,-0.60864,-0.6401,-0.60864,-0.6401,-0.57718,-0.60864,-0.60864,-0.57718,-0.55621,-0.38845,-0.21021,-0.17875,0.093863,0.27211,0.25114,0.062407,-0.073899,-0.14729,-0.2836,-0.36748,-0.45136,-0.50379
-0.52527,-0.49803,-0.55004,-0.47327,-0.47327,-0.42374,-0.4485,-0.47327,-0.3965,-0.3965,-0.42374,-0.37173,-0.37173,-0.37173,-0.29496,-0.29496,-0.2702,-0.3222,-0.29496,-0.29496,-0.3222,-0.29496,-0.24544,-0.24544,-0.24544,-0.24544,-0.22067,-0.24544,-0.19591,-0.11914,0.059167,0.21023,0.23747,0.36377,0.4653,0.56684,0.86896,0.7179,0.287,-0.017603,-0.22067,-0.34697,-1.1072,-1.5901,0.4653,5.3588,5.3588,5.3588,2.0626,-0.8794,-1.8675,-1.184,-0.8274,-0.80263,-0.77787,-0.72586,-0.7011,-0.67634,-0.59957,-0.55004,-0.49803,-0.3965,-0.34697,-0.3222,-0.24544,-0.24544,-0.24544,-0.19591,-0.11914,-0.094372,-0.017603,0.059167,0.13594,0.18547,0.287,0.36377,0.4653,0.56684,0.74266,0.8962,1.124,1.2256,1.2503,1.1488,0.9705,0.79467,0.56684,0.36377,0.18547,0.059167,-0.067131,-0.1439,-0.24544,-0.29496,-0.37173,-0.42374,-0.47327,-0.47327,-0.49803,-0.52527,-0.52527,-0.49803,-0.49803,-0.49803,-0.52527,-0.49803,-0.47327,-0.47327,-0.4485,-0.42374,-0.4485,-0.3965,-0.3965,-0.34697,-0.37173,-0.34697,-0.34697,-0.3222,-0.29496,-0.29496,-0.2702,-0.3222,-0.24544,-0.24544,-0.24544,-0.24544,-0.24544,-0.22067,-0.19591,-0.19591,-0.16867,-0.16867,-0.1439,-0.1439,-0.1439,-0.1439,-0.1439,-0.11914,-0.1439,-0.1439,-0.11914,-0.067131,0.0071619,0.21023,0.31176,0.4133,0.49007,0.5916,0.81943,0.9705,0.64113,0.23747,-0.017603,-0.16867,-0.47327,-1.4614,-1.5134,2.2657,5.3588,5.3588,4.7248,0.4653,-1.5901,-1.9443,-0.90417,-0.75311,-0.72586,-0.72586,-0.67634,-0.67634,-0.59957,-0.52527,-0.4485,-0.3965,-0.3222,-0.3222,-0.2702,-0.19591,-0.1439,-0.1439,-0.067131,-0.017603,0.0071619,0.1087,0.1607,0.21023,0.31176,0.38853,0.49007,0.64113,0.79467,0.9705,1.1736,1.3271,1.4014,1.4286,1.2008,1.0473,0.81943,0.5916,0.43806,0.26224,0.083932,-0.017603,-0.1439,-0.24544,-0.2702,-0.3222,-0.37173,-0.3965,-0.47327,-0.47327,-0.47327,-0.47327,-0.47327,-0.47327,-0.47327,-0.4485,-0.4485,-0.4485,-0.42374,-0.3965,-0.37173,-0.37173,-0.34697,-0.3222,-0.34697,-0.3222,-0.2702,-0.29496,-0.2702,-0.24544,-0.24544,-0.22067,-0.24544,-0.22067,-0.24544,-0.19591,-0.24544,-0.19591,-0.16867,-0.16867,-0.16867,-0.1439,-0.1439,-0.094372,-0.11914,-0.067131,-0.094372,-0.042367
-0.14861,0.024614,0.15347,0.19783,0.32669,0.39218,0.58652,0.75974,0.49991,0.13235,-0.08312,-0.21409,-0.36407,-1.1647,-1.4034,1.235,4.4375,4.4375,4.4375,0.5654,-1.4034,-1.771,-0.99147,-0.73164,-0.68939,-0.64503,-0.60278,-0.55842,-0.53729,-0.51617,-0.42956,-0.36407,-0.34295,-0.3007,-0.25634,-0.23522,-0.21409,-0.14861,-0.12748,-0.040871,0.0034897,0.045738,0.068975,0.15347,0.21896,0.30557,0.37105,0.47879,0.65201,0.73862,0.89071,1.0407,1.0851,1.0618,0.97732,0.8041,0.63088,0.45766,0.26332,0.13235,0.024614,-0.10424,-0.16973,-0.27746,-0.32183,-0.34295,-0.34295,-0.40843,-0.40843,-0.45068,-0.42956,-0.45068,-0.42956,-0.45068,-0.45068,-0.45068,-0.42956,-0.3852,-0.40843,-0.36407,-0.34295,-0.34295,-0.32183,-0.3007,-0.34295,-0.27746,-0.32183,-0.27746,-0.3007,-0.25634,-0.3007,-0.25634,-0.25634,-0.21409,-0.23522,-0.23522,-0.25634,-0.19085,-0.21409,-0.19085,-0.21409,-0.16973,-0.14861,-0.12748,-0.08312,0.0034897,0.13235,0.19783,0.26332,0.39218,0.49991,0.75974,0.8041,0.39218,0.0901,-0.10424,-0.19085,-0.55842,-1.2935,-0.40843,2.7074,4.4375,4.4375,2.7285,-0.49504,-1.771,-1.8576,-0.86261,-0.68939,-0.6239,-0.58165,-0.55842,-0.51617,-0.45068,-0.42956,-0.34295,-0.3007,-0.27746,-0.3007,-0.21409,-0.19085,-0.10424,-0.10424,-0.040871,-0.017635,0.024614,0.0901,0.15347,0.24008,0.32669,0.39218,0.45766,0.5654,0.67313,0.8041,0.95409,1.0407,1.0196,1.0407,0.84635,0.69426,0.45766,0.30557,0.15347,0.024614,-0.061996,-0.16973,-0.23522,-0.27746,-0.32183,-0.32183,-0.3852,-0.3852,-0.42956,-0.45068,-0.45068,-0.45068,-0.47181,-0.45068,-0.47181,-0.47181,-0.47181,-0.45068,-0.42956,-0.45068,-0.45068,-0.45068,-0.45068,-0.45068,-0.40843,-0.45068,-0.40843,-0.42956,-0.40843,-0.3852,-0.3852,-0.3852,-0.36407,-0.3852,-0.36407,-0.34295,-0.36407,-0.34295,-0.3007,-0.25634,-0.040871,0.068975,0.13235,0.24008,0.32669,0.49991,0.58652,0.37105,0.0034897,-0.21409,-0.34295,-0.51617,-1.3168,-1.5534,1.1062,4.4375,4.4375,4.4375,0.52315,-1.4668,-1.8576,-1.0781,-0.86261,-0.83937,-0.81825,-0.776,-0.75276,-0.71051,-0.64503,-0.58165,-0.53729,-0.49504,-0.45068,-0.3852,-0.36407,-0.34295,-0.3007,-0.25634,-0.21409,-0.14861,-0.061996,-0.017635,0.068975,0.0901,0.13235
0.33703,0.43794,0.53885,0.63976,0.74067,0.91542,0.96711,0.99172,0.84159,0.63976,0.43794,0.28534,0.1352,-0.014935,-0.11585,-0.21676,-0.29306,-0.36936,-0.41858,-0.4432,-0.41858,-0.49488,-0.5195,-0.5195,-0.54411,-0.54411,-0.5195,-0.54411,-0.5195,-0.54411,-0.5195,-0.54411,-0.49488,-0.47027,-0.49488,-0.47027,-0.49488,-0.47027,-0.4432,-0.41858,-0.41858,-0.41858,-0.41858,-0.41858,-0.39397,-0.34228,-0.34228,-0.29306,-0.31767,-0.29306,-0.31767,-0.29306,-0.29306,-0.29306,-0.29306,-0.26845,-0.24383,-0.26845,-0.21676,-0.19215,-0.24383,-0.19215,-0.11585,0.058903,0.2115,0.28534,0.38625,0.46255,0.53885,0.8662,0.68899,0.28534,-0.042009,-0.24383,-0.34228,-1.1742,-1.6295,0.51424,5.2768,5.2768,5.2768,1.9738,-1.0241,-2.0061,-1.2997,-0.89853,-0.84684,-0.79762,-0.82223,-0.77054,-0.72132,-0.64502,-0.57118,-0.5195,-0.41858,-0.39397,-0.36936,-0.31767,-0.34228,-0.24383,-0.19215,-0.11585,-0.091234,0.0096777,0.058903,0.1352,0.18689,0.28534,0.36164,0.43794,0.56346,0.68899,0.8662,1.0163,1.1443,1.1689,1.068,0.91542,0.68899,0.51424,0.31241,0.18689,0.03429,-0.091234,-0.19215,-0.29306,-0.31767,-0.41858,-0.41858,-0.4432,-0.47027,-0.54411,-0.54411,-0.54411,-0.54411,-0.54411,-0.57118,-0.57118,-0.54411,-0.49488,-0.54411,-0.47027,-0.47027,-0.4432,-0.4432,-0.41858,-0.41858,-0.4432,-0.47027,-0.39397,-0.39397,-0.36936,-0.41858,-0.34228,-0.36936,-0.34228,-0.31767,-0.31767,-0.34228,-0.29306,-0.29306,-0.24383,-0.29306,-0.26845,-0.26845,-0.24383,-0.26845,-0.26845,-0.21676,-0.24383,-0.19215,-0.21676,-0.19215,-0.19215,-0.16753,-0.19215,-0.16753,-0.11585,0.0096777,0.18689,0.28534,0.36164,0.46255,0.56346,0.89081,0.76529,0.41333,0.058903,-0.16753,-0.29306,-0.87146,-1.6295,-0.091234,4.3686,5.2768,5.2768,2.7565,-0.64502,-1.9298,-1.376,-0.87146,-0.77054,-0.79762,-0.77054,-0.72132,-0.64502,-0.62041,-0.5195,-0.4432,-0.39397,-0.36936,-0.29306,-0.26845,-0.24383,-0.19215,-0.19215,-0.091234,-0.014935,0.058903,0.11059,0.18689,0.23611,0.31241,0.41333,0.53885,0.63976,0.7899,0.91542,1.1172,1.2452,1.3191,1.2182,1.068,0.8662,0.66438,0.43794,0.26073,0.11059,0.0096777,-0.11585,-0.21676,-0.29306,-0.34228,-0.41858,-0.41858,-0.47027,-0.5195,-0.54411,-0.54411,-0.54411
-0.083798,-0.43921,-0.024563,-0.37997,0.014927,-0.32074,0.1334,-0.22201,0.27161,-0.024563,0.37034,0.074162,0.33085,0.37034,0.1334,0.42957,0.014927,0.42957,-0.083798,0.27161,-0.22201,0.1334,-0.32074,-0.024563,-0.43921,-0.083798,-0.37997,-0.024563,-0.37997,-0.024563,-0.43921,0.014927,-0.37997,0.014927,-0.28125,0.014927,-0.22201,-0.28125,0.014927,-0.18252,0.33085,0.17289,0.58753,0.27161,0.62702,0.014927,0.33085,-0.18252,0.014927,-0.4787,-0.22201,-0.53793,-0.18252,-0.57742,-0.22201,-0.57742,-0.22201,-0.57742,-0.22201,-0.53793,-0.18252,-0.57742,-0.67615,-0.32074,1.7327,4.3588,5.7805,3.4111,1.5353,0.62702,-0.083798,-0.43921,-0.77487,-0.53793,-0.89334,-0.53793,-0.83411,-0.4787,-0.73538,-0.37997,-0.73538,-0.32074,-0.67615,-0.32074,-0.67615,-0.22201,-0.53793,-0.18252,-0.37997,-0.083798,-0.024563,-0.28125,0.17289,-0.18252,0.27161,-0.083798,0.27161,-0.083798,0.27161,-0.12329,0.1334,-0.32074,-0.024563,-0.43921,-0.083798,-0.4787,-0.18252,-0.57742,-0.18252,-0.53793,-0.18252,-0.4787,-0.18252,-0.43921,-0.18252,-0.083798,-0.43921,0.014927,-0.37997,0.014927,-0.32074,0.17289,-0.024563,0.42957,0.23212,0.58753,0.1334,0.33085,-0.12329,0.074162,-0.43921,-0.12329,-0.4787,-0.22201,-0.57742,-0.22201,-0.53793,-0.22201,-0.53793,-0.18252,-0.12329,-0.4787,-0.18252,-0.53793,-0.73538,-0.18252,1.8907,4.5168,5.7212,3.0951,1.5945,0.46906,0.1334,-0.63666,-0.4787,-0.93283,-0.4787,-0.93283,-0.4787,-0.83411,-0.4787,-0.77487,-0.43921,-0.67615,-0.73538,-0.32074,-0.63666,-0.22201,-0.57742,-0.12329,-0.4787,-0.024563,-0.37997,0.074162,-0.22201,0.17289,-0.083798,0.33085,-0.024563,0.27161,-0.18252,0.23212,-0.22201,0.074162,-0.37997,-0.12329,-0.4787,-0.12329,-0.43921,-0.4787,-0.12329,-0.4787,-0.18252,-0.53793,-0.083798,-0.4787,-0.12329,-0.4787,-0.083798,-0.43921,-0.083798,-0.32074,0.1334,-0.12329,0.42957,0.1334,0.58753,0.17289,0.42957,-0.083798,0.17289,-0.28125,-0.12329,-0.4787,-0.53793,-0.22201,-0.57742,-0.22201,-0.53793,-0.18252,-0.53793,-0.18252,-0.53793,-0.18252,-0.53793,-0.18252,-0.67615,0.17289,2.0487,4.9709,5.6225,3.2531,1.2786,0.8837,-0.22201,-0.32074,-0.73538,-0.43921,-0.73538,-0.4787,-0.67615,-0.73538,-0.32074,-0.73538,-0.37997,-0.67615,-0.22201,-0.67615,-0.28125,-0.53793
-0.26359,-0.56042,-0.16464,-0.52084,-0.065699,-0.30317,0.092612,-0.30317,0.19156,-0.20422,0.19156,-0.16464,0.15198,-0.30317,-0.065699,-0.0063324,-0.40211,-0.16464,-0.65936,-0.30317,-0.65936,-0.20422,-0.56042,-0.20422,-0.56042,-0.26359,-0.61979,-0.30317,-0.61979,-0.20422,-0.61979,-0.30317,-0.56042,-0.10528,-0.40211,-0.0063324,-0.16464,0.25092,0.15198,0.44881,0.092612,0.25092,-0.10528,-0.30317,-0.065699,-0.56042,-0.20422,-0.65936,-0.26359,-0.56042,-0.20422,-0.52084,-0.20422,-0.56042,-0.20422,-0.56042,-0.065699,-0.52084,-0.52084,-0.26359,1.6559,4.1493,5.9699,3.4765,1.7153,0.50818,0.15198,-0.46148,-0.65936,-0.36253,-0.75831,-0.36253,-0.71873,-0.30317,-0.65936,-0.30317,-0.61979,-0.20422,-0.52084,-0.10528,-0.46148,-0.065699,-0.36253,0.053034,-0.30317,0.15198,-0.16464,0.25092,-0.0063324,0.2905,0.34987,0.053034,0.38944,0.053034,0.38944,-0.065699,0.34987,-0.16464,0.15198,-0.30317,-0.065699,-0.40211,-0.10528,-0.40211,-0.10528,-0.46148,-0.065699,-0.46148,-0.065699,-0.52084,-0.065699,-0.36253,-0.065699,-0.36253,-0.0063324,-0.26359,-0.0063324,0.15198,-0.20422,0.38944,0.19156,0.6467,0.34987,0.6467,0.15198,0.34987,-0.20422,-0.065699,-0.40211,-0.10528,-0.52084,-0.10528,-0.56042,-0.10528,-0.56042,-0.10528,-0.46148,-0.10528,-0.46148,-0.10528,-0.52084,-0.75831,-0.16464,2.0715,4.8024,5.7126,3.1797,1.4185,0.70607,-0.10528,-0.36253,-0.71873,-0.46148,-0.81768,-0.52084,-0.75831,-0.40211,-0.75831,-0.30317,-0.71873,-0.30317,-0.61979,-0.26359,-0.52084,-0.16464,-0.36253,-0.065699,0.053034,-0.30317,0.15198,-0.20422,0.25092,-0.16464,0.2905,-0.065699,0.34987,-0.0063324,0.2905,-0.10528,0.15198,-0.30317,-0.0063324,-0.46148,-0.065699,-0.46148,-0.065699,-0.46148,-0.10528,-0.46148,-0.16464,-0.52084,-0.26359,-0.16464,-0.46148,-0.065699,-0.46148,-0.065699,-0.46148,-0.065699,-0.46148,-0.0063324,-0.16464,0.34987,0.15198,0.60712,0.19156,0.34987,-0.10528,0.19156,-0.36253,-0.065699,-0.56042,-0.16464,-0.52084,-0.20422,-0.52084,-0.20422,-0.10528,-0.46148,-0.065699,-0.52084,-0.10528,-0.56042,-0.30317,-0.81768,0.96332,3.4765,5.8116,4.2879,2.2298,0.80501,0.38944,-0.52084,-0.30317,-0.81768,-0.52084,-0.81768,-0.46148,-0.75831,-0.46148,-0.40211,-0.71873,-0.40211,-0.75831,-0.30317,-0.61979,-0.20422,-0.56042,-0.10528,-0.46148
