0.87094,0.84492,0.81914,0.79351,0.76769,0.73947,0.71093,0.68225,0.65337,0.62241,0.59143,0.56061,0.52984,0.49718,0.46448,0.4318,0.39893,0.36394,0.32881,0.29377,0.2588,0.22219,0.18593,0.15022,0.11498,0.078576,0.042487,0.0067319,-0.028836,-0.066013,-0.10245,-0.13751,-0.17081,-0.20345,-0.2337,-0.26143,-0.28697,-0.31225,-0.3361,-0.35885,-0.381,-0.40452,-0.4276,-0.44993,-0.47135,-0.49296,-0.51316,-0.53175,-0.54879,-0.56588,-0.58143,-0.59536,-0.60779,-0.62029,-0.63127,-0.6406,-0.64835,-0.65594,-0.66211,-0.66688,-0.67048,-0.67454,-0.6775,-0.67921,-0.6797,-0.68028,-0.67956,-0.67746,-0.67417,-0.67121,-0.66738,-0.66274,-0.65757,-0.65346,-0.64904,-0.64423,-0.63914,-0.63505,-0.63064,-0.62583,-0.6207,-0.61666,-0.61228,-0.60745,-0.60226,-0.59805,-0.59356,-0.58876,-0.58382,-0.58022,-0.57659,-0.57283,-0.56907,-0.5666,-0.56422,-0.56193,-0.55985,-0.55944,-0.55912,-0.55866,-0.55801,-0.55834,-0.55842,-0.55824,-0.55801,-0.55925,-0.56061,-0.56201,-0.56354,-0.56649,-0.56941,-0.5721,-0.5746,-0.57814,-0.58147,-0.58454,-0.58751,-0.59186,-0.59615,-0.60021,-0.6041,-0.60907,-0.61383,-0.61828,-0.62254,-0.62798,-0.63324,-0.63818,-0.64282,-0.64846,-0.65355,-0.65781,-0.66126,-0.66511,-0.66817,-0.67048,-0.67232,-0.67525,-0.67804,-0.68071,-0.68339,-0.6874,-0.69132,-0.69491,-0.69814,-0.70218,-0.70571,-0.70862,-0.71104,-0.71437,-0.71732,-0.71986,-0.72211,-0.7254,-0.72841,-0.73098,-0.73317,-0.73621,-0.7388,-0.74082,-0.74239,-0.74482,-0.74686,-0.74847,-0.74976,-0.7521,-0.75415,-0.7558,-0.75714,-0.75942,-0.76141,-0.76306,-0.76451,-0.76709,-0.76952,-0.77172,-0.77373,-0.77678,-0.77945,-0.78151,-0.78295,-0.78494,-0.78621,-0.78672,-0.78664,-0.78737,-0.78784,-0.78813,-0.78848,-0.7903,-0.79222,-0.79408,-0.79586,-0.79864,-0.80116,-0.80327,-0.80508,-0.80785,-0.81034,-0.81245,-0.8143,-0.81714,-0.81968,-0.82179,-0.82352,-0.82605,-0.82815,-0.82973,-0.83089,-0.83292,-0.83455,-0.83569,-0.83642,-0.83799,-0.83916,-0.83983,-0.84011,-0.84125,-0.84197,-0.84218,-0.84195,-0.84256,-0.84276,-0.84252,-0.84195,-0.84235,-0.8425,-0.84234,-0.84195,-0.84257,-0.84287,-0.84266,-0.84195,-0.84194,-0.84134,-0.84006,-0.83827,-0.83723,-0.8359,-0.83434,-0.83273,-0.83248,-0.83218,-0.83166,-0.83089,-0.83091,-0.8306,-0.82993,-0.82905,-0.82937,-0.82952,-0.82939,-0.82905,-0.8296,-0.83005,-0.83042,-0.83089,-0.83286,-0.83488,-0.83669,-0.83827,-0.84063,-0.84263,-0.84425,-0.84564,-0.84821,-0.85067,-0.85288,-0.85486,-0.85778,-0.86016,-0.86168,-0.86224,-0.86295,-0.86237,-0.86027,-0.8567,-0.85309,-0.84794,-0.84112,-0.83273,-0.82415,-0.814,-0.80211,-0.78848,-0.77457,-0.75828,-0.73906,-0.71657,-0.69197,-0.66356,-0.63115,-0.59488,-0.55664,-0.51471,-0.46901,-0.41972,-0.36871,-0.31423,-0.25618,-0.19478,-0.13195,-0.066053,0.002856,0.074417,0.14641,0.22059,0.29689,0.37496,0.45258,0.53144,0.61143,0.69209,0.77108,0.85011,0.92902,1.0074,1.0828,1.1572,1.2305,1.3024,1.3707,1.4372,1.5018,1.5642,1.6219,1.6773,1.7307,1.7818,1.8285,1.8728,1.9145,1.9533,1.9864,2.0164,2.0434,2.0676,2.0867,2.1041,2.1203,2.1358,2.1485,2.1609,2.1727,2.1837,2.1908,2.1968,2.2018,2.2059,2.2066,2.2068,2.2065,2.2059,2.2021,2.198,2.1938,2.1893,2.1818,2.174,2.1661,2.1579,2.1467,2.1354,2.1244,2.1137,2.1007,2.088,2.0759,2.0639,2.0492,2.0347,2.0205,2.0067,1.9907,1.9751,1.9602,1.9459,1.9293,1.9133,1.898,1.8832,1.8662,1.8497,1.8339,1.8187,1.8013,1.7844,1.7681,1.7523,1.7342,1.7165,1.6992,1.6822,1.6629,1.6438,1.6251,1.6066,1.5859,1.5655,1.5454,1.5255,1.5033,1.4813,1.4599,1.4388,1.4159,1.3932,1.3708,1.3485,1.3237,1.2987,1.2738,1.2489,1.2218,1.1946,1.1674,1.1401,1.1104,1.0805,1.0505,1.0203,0.98763,0.95486,0.92216,0.88938,0.85458,0.81939,0.78375,0.7474,0.70813,0.66877,0.63008,0.59253,0.55485,0.51898,0.48498,0.4524,0.41885,0.38579,0.35289,0.31964,0.28384,0.24767,0.21158,0.17583,0.13916,0.10346,0.068991,0.035697,0.0016989,-0.030958,-0.062029,-0.091526,-0.12108,-0.14885,-0.17461,-0.19847,-0.22209,-0.2438,-0.26352,-0.28144,-0.2993,-0.31544,-0.32973,-0.34228,-0.35478,-0.36546,-0.37416,-0.381,-0.38758,-0.39247,-0.39572,-0.3976,-0.39994,-0.40107,-0.40087,-0.39944,-0.39829,-0.39601,-0.39261,-0.38838,-0.38505,-0.38115,-0.37667,-0.37178,-0.36804,-0.36404,-0.35971,-0.35519,-0.35203,-0.34859,-0.34471,-0.34044,-0.33718,-0.3336,-0.32969,-0.32569,-0.32326,-0.32093,-0.31863,-0.31647,-0.31588,-0.31542,-0.31496,-0.31463,-0.31587,-0.31724,-0.31863,-0.32016,-0.3233,-0.32656,-0.32979,-0.33306,-0.33778,-0.34248,-0.34702,-0.3515,-0.35737,-0.36308,-0.36847,-0.37363,-0.37997,-0.38608,-0.39191,-0.3976,-0.40465,-0.41165,-0.4185,-0.42525,-0.43331,-0.44106,-0.44822,-0.45475,-0.46197,-0.46839,-0.47392,-0.47872,-0.48434,-0.48952,-0.49433,-0.49901,-0.50515,-0.51126,-0.5172,-0.52298,-0.52984,-0.53647,-0.54275,-0.54879,-0.55605,-0.56289,-0.56908,-0.5746,-0.58066,-0.58603,-0.5907,-0.59488,-0.60016,-0.60504,-0.6094,-0.61332,-0.61806,-0.62238,-0.62627,-0.62992,-0.6348,-0.63954,-0.64403,-0.64835,-0.65382,-0.65907,-0.66399,-0.66864,-0.67431,-0.67965,-0.68451,-0.68892,-0.69416,-0.69877,-0.70254,-0.70551,-0.70895,-0.7116,-0.71345,-0.71473,-0.7169,-0.7188,-0.72047,-0.72211,-0.7251,-0.72804,-0.73073,-0.73317,-0.73649,-0.73945,-0.74199,-0.74423,-0.74756,-0.75058,-0.75314,-0.75529,-0.75824,-0.76076,-0.7628,-0.76451,-0.76725,-0.76973,-0.77186,-0.77373,-0.77658,-0.77912,-0.78122,-0.78295,-0.78559,-0.78775,-0.7893,-0.79033,-0.79205,-0.79347,-0.79467,-0.79586,-0.79855,-0.80115,-0.80336,-0.80508,-0.80723,-0.80882,-0.80987,-0.81061,-0.81257,-0.81426,-0.81547,-0.81614,-0.81732,-0.81774,-0.8173,-0.81614,-0.8156,-0.81469,-0.81355,-0.81245,-0.81291,-0.81348,-0.81395,-0.8143,-0.81547,-0.81646,-0.81723,-0.81798,-0.82016,-0.82224,-0.82399,-0.82536,-0.82733,-0.82888,-0.82999,-0.83089,-0.83302,-0.83503,-0.83677,-0.83827,-0.84059,-0.84262,-0.84426,-0.84564,-0.84808,-0.85019,-0.85182,-0.85302,-0.8549,-0.85642,-0.85757,-0.85855,-0.86072,-0.86276,-0.8645,-0.86592,-0.86812,-0.86984,-0.87092,-0.87145,-0.87273,-0.87346,-0.87361,-0.8733,-0.87387,-0.87408,-0.87386,-0.8733,-0.87368,-0.87363,-0.87291,-0.87145,-0.87049,-0.86826,-0.86434,-0.85855,-0.85199,-0.84316,-0.83182,-0.81798,-0.8032,-0.78557,-0.76473,-0.74054,-0.71433,-0.68446,-0.65076,-0.61332,-0.57396,-0.5308,-0.48365,-0.43263,-0.37948,-0.32265,-0.2622,-0.19847,-0.13361,-0.065861,0.0048047,0.078104,0.15215,0.22832,0.30642,0.38602,0.46453,0.54422,0.62512,0.70684,0.78725,0.86696,0.94504,1.0203,1.0896,1.1549,1.2165,1.2747,1.3281,1.38,1.4314,1.4831,1.5336,1.5845,1.6356,1.6859,1.7321,1.7765,1.8189,1.8592,1.8953,1.9293,1.9616,1.992,2.0181,2.0424,2.0651,2.086,2.1026,2.1176,2.1311,2.1432,2.1513,2.1582,2.1641,2.169,2.1703,2.1706,2.1702,2.169,2.1643,2.1589,2.1531,2.1469,2.1377,2.1281,2.1183,2.1081,2.0948,2.0812,2.0679,2.0547,2.0392,2.0242,2.0098,1.9957,1.9791,1.9628,1.9469,1.9311,1.9129,1.8951,1.8778,1.8611,1.8423,1.824,1.8064,1.7892,1.7695,1.7503,1.7317,1.7136,1.6935,1.6741,1.6557,1.638,1.6185,1.5997,1.5817,1.5642,1.5447,1.5258,1.5077,1.4905,1.4716,1.4534,1.4358,1.4185,1.3989,1.3793,1.3601,1.3411,1.3202,1.2994,1.2788,1.2581,1.235,1.2121,1.1897,1.1678,1.1445,1.122,1.1004,1.0793,1.0564,1.0335,1.0105,0.9871,0.96081,0.93383,0.90635,0.87831,0.84784,0.817,0.78602,0.75478,0.72126,0.68758,0.65392,0.62018,0.58447,0.54881,0.51341,0.47821,0.44138,0.405,0.36934,0.33439,0.29838,0.26325,0.2292,0.19611,0.16215,0.12923,0.097546,0.067041,0.03597,0.0063946,-0.021365,-0.047274,-0.072943,-0.096587,-0.11809,-0.13762,-0.15709,-0.17467,-0.19025,-0.204,-0.21761,-0.22951,-0.23966,-0.24825,-0.25712,-0.26445,-0.27006,-0.27406,-0.27804,-0.28053,-0.28156,-0.28144,-0.28202,-0.28163,-0.28017,-0.27775,-0.27594,-0.27319,-0.26943,-0.26484,-0.26109,-0.25673,-0.25176,-0.24641,-0.24239,-0.23804,-0.23319,-0.22797,-0.22383,-0.21957,-0.21531,-0.21137,-0.20957,-0.20818,-0.20696,-0.20584,-0.2061,-0.20622,-0.20608,-0.20584,-0.20713,-0.20846,-0.20981,-0.21137,-0.21472,-0.21835,-0.22213,-0.22612,-0.23173,-0.23739,-0.24289,-0.24825,-0.25493,-0.26124,-0.26697,-0.27222,-0.27843,-0.28439,-0.2902,-0.29619,-0.30369,-0.31174,-0.32032,-0.32938,-0.34067,-0.35129,-0.36047,-0.3681,-0.37506,-0.38251,-0.39238,-0.40682,-0.4293,-0.45844,-0.49375,-0.53404,-0.57892,-0.62438,-0.66784,-0.70736,-0.74213,-0.77162,-0.79648,-0.81798,-0.8395,-0.85947,-0.87808,-0.89542,-0.91225,-0.92769,-0.94169,-0.95443,-0.96735,-0.97926,-0.99023,-1.0005,-1.0116,-1.0221,-1.032,-1.0411,-1.0506,-1.0591,-1.0664,-1.0724,-1.0783,-1.083,-1.0864,-1.089,-1.0921,-1.0946,-1.0966,-1.0982,-1.1007,-1.1029,-1.1045,-1.1056,-1.1073,-1.1084,-1.1091,-1.1093,-1.1104,-1.1113,-1.1122
-1.0806,-1.0814,-1.0819,-1.0821,-1.082,-1.0824,-1.0825,-1.0824,-1.082,-1.0825,-1.0827,-1.0825,-1.082,-1.0819,-1.0813,-1.0803,-1.0791,-1.0786,-1.078,-1.0772,-1.0762,-1.0758,-1.0752,-1.0743,-1.0732,-1.0727,-1.0719,-1.0706,-1.0688,-1.0675,-1.0658,-1.0637,-1.0615,-1.0601,-1.0586,-1.0571,-1.0556,-1.055,-1.0544,-1.0536,-1.0527,-1.0525,-1.0522,-1.0517,-1.0512,-1.0516,-1.052,-1.0523,-1.0527,-1.054,-1.0552,-1.0562,-1.0571,-1.0586,-1.0598,-1.0607,-1.0615,-1.063,-1.0642,-1.0652,-1.0659,-1.0671,-1.0681,-1.0686,-1.0688,-1.0696,-1.0701,-1.0703,-1.0703,-1.0711,-1.0717,-1.0719,-1.0718,-1.072,-1.0721,-1.0719,-1.0718,-1.0726,-1.0735,-1.0742,-1.0747,-1.0756,-1.0762,-1.0763,-1.0762,-1.0767,-1.0771,-1.0773,-1.0776,-1.0789,-1.0803,-1.0818,-1.0835,-1.0863,-1.089,-1.0916,-1.0937,-1.0963,-1.0983,-1.0994,-1.0996,-1.0999,-1.0992,-1.0971,-1.0937,-1.0899,-1.0844,-1.0769,-1.0674,-1.0566,-1.0434,-1.0274,-1.0087,-0.98827,-0.96474,-0.93784,-0.90751,-0.87474,-0.83843,-0.79849,-0.755,-0.70961,-0.66037,-0.60701,-0.5497,-0.48983,-0.42736,-0.36331,-0.29894,-0.23692,-0.17601,-0.11612,-0.056984,0.00042002,0.058732,0.11905,0.18204,0.24695,0.31468,0.38476,0.45627,0.52628,0.59642,0.66654,0.73635,0.80429,0.87154,0.93799,1.0032,1.0652,1.1255,1.1841,1.2408,1.2936,1.3442,1.3927,1.4388,1.4805,1.52,1.5574,1.5927,1.6242,1.6537,1.6814,1.7071,1.7289,1.7488,1.767,1.7834,1.7961,1.8072,1.8172,1.8259,1.8314,1.8358,1.8394,1.842,1.8416,1.8402,1.8379,1.8347,1.8283,1.8211,1.8135,1.8054,1.7948,1.7841,1.7735,1.7629,1.75,1.737,1.7243,1.7115,1.6965,1.6816,1.6671,1.6529,1.6369,1.6212,1.6061,1.5913,1.5744,1.5578,1.5415,1.5253,1.5071,1.4892,1.4718,1.4549,1.4364,1.4184,1.4012,1.3845,1.3662,1.3483,1.331,1.3141,1.2955,1.2773,1.2596,1.2423,1.2232,1.2044,1.1858,1.1675,1.1472,1.1271,1.1075,1.0883,1.0676,1.0474,1.028,1.0091,0.98881,0.96872,0.94872,0.92846,0.90578,0.88272,0.85949,0.83607,0.81089,0.78562,0.76036,0.73489,0.70731,0.67947,0.65155,0.62344,0.59354,0.56351,0.53344,0.50319,0.47107,0.4388,0.40652,0.37415,0.34015,0.30605,0.27197,0.23777,0.20188,0.16606,0.13059,0.095525,0.05958,0.024298,-0.010141,-0.043786,-0.078157,-0.1115,-0.14355,-0.1743,-0.20495,-0.23424,-0.26211,-0.28868,-0.3155,-0.34076,-0.36413,-0.38546,-0.40588,-0.42412,-0.44018,-0.45439,-0.46835,-0.48097,-0.49237,-0.50278,-0.51367,-0.52355,-0.53216,-0.53944,-0.54643,-0.55192,-0.55588,-0.5585,-0.56125,-0.56288,-0.56337,-0.5629,-0.56273,-0.5617,-0.55976,-0.55704,-0.55478,-0.55183,-0.54813,-0.54384,-0.54019,-0.53604,-0.53135,-0.52624,-0.52196,-0.51736,-0.51238,-0.50718,-0.50295,-0.49859,-0.49409,-0.48958,-0.48626,-0.48299,-0.47967,-0.47638,-0.47425,-0.47211,-0.46986,-0.46758,-0.46645,-0.46534,-0.4642,-0.46318,-0.46347,-0.46404,-0.46487,-0.46612,-0.46897,-0.4722,-0.47564,-0.47932,-0.48423,-0.4893,-0.49447,-0.49985,-0.50661,-0.51357,-0.52059,-0.52771,-0.53595,-0.54414,-0.55214,-0.55997,-0.56871,-0.57726,-0.58556,-0.5937,-0.60284,-0.6118,-0.62047,-0.62889,-0.6381,-0.64705,-0.65568,-0.66409,-0.67341,-0.68245,-0.69107,-0.69928,-0.70808,-0.71641,-0.7242,-0.73154,-0.73903,-0.74636,-0.75364,-0.76087,-0.77059,-0.77857,-0.78368,-0.7858,-0.78337,-0.78296,-0.78863,-0.8034,-0.83395,-0.86975,-0.90458,-0.93244,-0.94493,-0.94701,-0.94184,-0.93391,-0.93212,-0.93282,-0.93573,-0.93977,-0.94258,-0.94475,-0.94616,-0.94711,-0.94946,-0.95172,-0.95384,-0.9559,-0.9589,-0.96172,-0.96415,-0.96617,-0.9686,-0.97044,-0.97158,-0.97204,-0.97287,-0.97281,-0.97159,-0.9691,-0.96611,-0.96156,-0.95525,-0.94711,-0.93831,-0.92708,-0.91295,-0.89578,-0.8765,-0.85441,-0.82985,-0.8034,-0.77687,-0.74906,-0.71984,-0.68901,-0.65765,-0.6235,-0.58574,-0.54384,-0.49857,-0.44883,-0.39481,-0.33707,-0.27793,-0.21584,-0.1509,-0.08338,-0.014861,0.055798,0.12842,0.20257,0.27622,0.35077,0.42606,0.50173,0.5758,0.64972,0.72339,0.79648,0.86699,0.93651,1.005,1.0722,1.136,1.1982,1.2587,1.3171,1.3714,1.4235,1.4734,1.5209,1.5642,1.6052,1.644,1.6807,1.7133,1.7438,1.7726,1.7995,1.8226,1.8437,1.863,1.8802,1.893,1.9037,1.9126,1.9198,1.9232,1.9256,1.9273,1.9286,1.9273,1.9259,1.9244,1.9227,1.9183,1.9137,1.9088,1.9036,1.8959,1.8878,1.8797,1.8714,1.8605,1.8495,1.8385,1.8274,1.8139,1.8005,1.7874,1.7746,1.7598,1.7453,1.7312,1.7174,1.7014,1.6857,1.6706,1.6558,1.6393,1.6233,1.6078,1.5927,1.5756,1.5589,1.5426,1.5268,1.5092,1.4921,1.4755,1.4593,1.4413,1.4237,1.4067,1.3904,1.3725,1.3551,1.3381,1.3215,1.3027,1.284,1.2654,1.2467,1.2259,1.2051,1.1847,1.1646,1.1428,1.1214,1.1004,1.0795,1.0567,1.0339,1.0112,0.98858,0.96402,0.93943,0.91492,0.89033,0.86378,0.83708,0.8103,0.78328,0.75418,0.72486,0.69549,0.66597,0.63465,0.60317,0.57162,0.53985,0.50603,0.47214,0.43845,0.40494,0.37027,0.33576,0.30143,0.2671,0.23103,0.19544,0.1609,0.12779,0.095049,0.064328,0.035741,0.0090054,-0.017667,-0.043197,-0.067887,-0.092178,-0.11791,-0.14331,-0.16805,-0.1919,-0.21583,-0.23833,-0.25917,-0.27841,-0.29757,-0.31519,-0.33124,-0.34587,-0.36055,-0.37382,-0.38553,-0.39573,-0.40568,-0.41412,-0.42101,-0.42652,-0.43211,-0.43643,-0.43941,-0.44119,-0.44309,-0.44393,-0.44372,-0.44265,-0.44215,-0.44098,-0.43914,-0.43679,-0.43523,-0.43324,-0.43079,-0.42799,-0.42612,-0.42403,-0.42167,-0.41919,-0.41787,-0.41648,-0.41494,-0.41333,-0.41283,-0.41221,-0.41137,-0.41039,-0.41047,-0.41049,-0.41041,-0.41039,-0.41171,-0.41316,-0.41465,-0.41626,-0.41912,-0.42207,-0.425,-0.42799,-0.43221,-0.43638,-0.44034,-0.44412,-0.44882,-0.45332,-0.45757,-0.46172,-0.467,-0.47222,-0.47728,-0.48225,-0.48825,-0.49417,-0.49995,-0.50571,-0.51267,-0.51966,-0.5266,-0.53357,-0.54167,-0.54979,-0.55783,-0.56583,-0.57489,-0.58367,-0.59191,-0.59956,-0.6076,-0.61491,-0.62146,-0.62742,-0.63406,-0.64037,-0.6464,-0.65235,-0.6594,-0.66644,-0.67337,-0.68022,-0.68799,-0.69554,-0.70271,-0.70954,-0.71707,-0.72424,-0.73099,-0.73741,-0.74461,-0.75146,-0.75784,-0.7638,-0.77031,-0.77639,-0.782,-0.78727,-0.79329,-0.799,-0.8043,-0.80926,-0.81486,-0.82015,-0.82509,-0.82979,-0.83535,-0.84067,-0.84565,-0.85032,-0.85564,-0.8606,-0.86516,-0.86939,-0.8743,-0.8789,-0.88311,-0.88698,-0.89148,-0.8955,-0.89888,-0.90165,-0.9047,-0.90715,-0.90901,-0.91045,-0.91257,-0.91448,-0.91618,-0.91778,-0.92027,-0.92262,-0.92471,-0.92658,-0.92908,-0.93137,-0.93343,-0.93537,-0.93827,-0.94101,-0.94347,-0.94564,-0.94833,-0.95069,-0.95268,-0.95444,-0.95699,-0.95935,-0.96142,-0.96324,-0.96567,-0.96775,-0.96937,-0.97057,-0.97228,-0.97358,-0.97444,-0.97497,-0.97616,-0.97707,-0.97763,-0.9779,-0.9788,-0.97938,-0.97956,-0.97937,-0.97974,-0.97966,-0.97904,-0.9779,-0.97717,-0.97594,-0.97418,-0.97204,-0.97051,-0.96875,-0.96676,-0.9647,-0.96356,-0.96246,-0.96134,-0.9603,-0.96025,-0.96027,-0.96027,-0.9603,-0.96128,-0.96216,-0.96281,-0.96324,-0.96429,-0.96513,-0.96571,-0.96617,-0.96749,-0.96871,-0.96973,-0.97057,-0.97209,-0.97335,-0.97429,-0.97497,-0.97634,-0.97751,-0.97848,-0.97937,-0.98115,-0.98296,-0.98478,-0.9867,-0.98965,-0.99265,-0.99558,-0.99843,-1.0021,-1.0055,-1.0087,-1.0116,-1.0151,-1.0183,-1.0211,-1.0234,-1.0261,-1.028,-1.0286,-1.0278,-1.0264,-1.0236,-1.0195,-1.0146,-1.0101,-1.0052,-0.99986,-0.99403,-0.9887,-0.98219,-0.97386,-0.96324,-0.9509,-0.93546,-0.9166,-0.89431,-0.86996,-0.84209,-0.81059,-0.77553,-0.73825,-0.69747,-0.65314,-0.60543,-0.55585,-0.50311,-0.44721,-0.3884,-0.32812,-0.26537,-0.20031,-0.13324,-0.066065,0.0030127,0.074089,0.14685,0.21936,0.29218,0.36428,0.43427,0.49967,0.56028,0.61532,0.6645,0.70595,0.74409,0.78137,0.81994,0.86065,0.9047,0.95171,1.0003,1.0469,1.0918,1.1338,1.1719,1.2034,1.2314,1.2572,1.2819,1.3055,1.3292,1.3528,1.3757,1.3947,1.4123,1.4284,1.4432,1.455,1.4656,1.4754,1.4842,1.4901,1.4949,1.4989,1.5018,1.5015,1.5003,1.4985,1.496,1.491,1.4856,1.4799,1.474,1.4655,1.4568,1.4479,1.4388,1.4274,1.4159,1.4046,1.3933,1.3802,1.3672,1.3545,1.342,1.3275,1.3133,1.2996,1.2863,1.2713,1.257,1.2435,1.2305,1.2161,1.2015,1.1864,1.1704,1.1511,1.131,1.1109,1.0912,1.0709,1.0522,1.0356,1.0208,1.0058,0.99227,0.97993,0.96805,0.95425,0.93964,0.92385,0.90646,0.88544,0.86326,0.84072,0.81847,0.79555,0.77425,0.75503,0.73782,0.72053,0.70462,0.68965,0.67476,0.65761,0.63916,0.61908,0.59704,0.57141,0.54446,0.51708,0.48999,0.46252,0.43678,0.41321,0.39174,0.37032,0.35023,0.33084,0.31109,0.28889,0.26397,0.23542,0.20257,0.16335,0.12109,0.077458,0.033935,-0.0089967,-0.050062,-0.08929,-0.12737,-0.16651,-0.20616,-0.2468
1.1629,1.1399,1.1178,1.097,1.0777,1.0577,1.0392,1.0225,1.0073,0.99108,0.9761,0.96244,0.94988,0.93622,0.92359,0.91215,0.90173,0.89013,0.87969,0.87063,0.86283,0.85417,0.8467,0.84043,0.83505,0.82823,0.82196,0.81629,0.81098,0.80388,0.79711,0.79086,0.78505,0.77766,0.77081,0.76468,0.75912,0.75202,0.74535,0.73917,0.73319,0.72554,0.71776,0.70987,0.7017,0.69099,0.68063,0.67122,0.66281,0.65385,0.64481,0.63466,0.62207,0.60387,0.58184,0.55624,0.52761,0.49498,0.46204,0.43053,0.40167,0.37512,0.35211,0.33226,0.31463,0.29595,0.27833,0.26175,0.2461,0.22996,0.21475,0.20047,0.18684,0.17188,0.15732,0.14322,0.12942,0.11411,0.099281,0.085235,0.072008,0.058047,0.045061,0.033127,0.022003,0.0098509,-0.0018439,-0.01314,-0.024298,-0.03711,-0.049818,-0.062214,-0.074304,-0.087527,-0.1003,-0.11251,-0.12431,-0.13738,-0.15011,-0.16238,-0.17431,-0.18744,-0.20021,-0.21247,-0.22432,-0.23727,-0.24968,-0.26139,-0.27247,-0.28441,-0.29578,-0.30655,-0.31692,-0.32851,-0.33982,-0.35074,-0.36137,-0.37313,-0.38452,-0.39539,-0.40582,-0.41726,-0.42821,-0.43856,-0.44842,-0.4592,-0.46959,-0.47954,-0.48916,-0.4999,-0.51012,-0.51952,-0.52806,-0.53694,-0.54482,-0.55165,-0.55769,-0.56449,-0.57096,-0.57725,-0.58362,-0.59163,-0.5997,-0.60756,-0.6151,-0.62336,-0.63107,-0.63815,-0.64473,-0.65233,-0.65953,-0.66623,-0.67252,-0.67965,-0.68638,-0.69261,-0.69844,-0.70519,-0.71151,-0.71726,-0.72252,-0.72854,-0.73399,-0.73874,-0.74289,-0.74772,-0.75208,-0.75597,-0.75956,-0.76427,-0.76869,-0.77267,-0.77623,-0.78049,-0.78435,-0.78782,-0.79105,-0.79542,-0.79946,-0.80296,-0.80586,-0.80921,-0.81186,-0.81376,-0.81512,-0.81734,-0.81927,-0.82094,-0.82253,-0.82534,-0.82816,-0.8309,-0.83364,-0.83751,-0.84132,-0.84495,-0.84846,-0.85307,-0.85745,-0.86145,-0.86513,-0.8696,-0.87383,-0.87783,-0.8818,-0.88703,-0.89225,-0.8973,-0.90217,-0.90789,-0.91325,-0.91811,-0.92254,-0.92772,-0.93252,-0.93693,-0.94106,-0.94617,-0.95101,-0.95547,-0.95958,-0.96443,-0.96886,-0.97276,-0.97625,-0.98049,-0.98438,-0.98787,-0.99107,-0.99511,-0.99873,-1.0017,-1.004,-1.0067,-1.0085,-1.0095,-1.0096,-1.0101,-1.0102,-1.01,-1.0096,-1.0105,-1.0114,-1.0124,-1.0133,-1.0152,-1.017,-1.0188,-1.0207,-1.0239,-1.0272,-1.0304,-1.0337,-1.0379,-1.0421,-1.0462,-1.0503,-1.0557,-1.061,-1.066,-1.0707,-1.0761,-1.081,-1.0853,-1.0892,-1.0939,-1.098,-1.1014,-1.104,-1.1069,-1.1087,-1.109,-1.1077,-1.106,-1.1022,-1.096,-1.0874,-1.0775,-1.0651,-1.0504,-1.0337,-1.0163,-0.99709,-0.97576,-0.95217,-0.92763,-0.89984,-0.86804,-0.83179,-0.79207,-0.74753,-0.69828,-0.64473,-0.58918,-0.52989,-0.46685,-0.40026,-0.33184,-0.26015,-0.18529,-0.10764,-0.02935,0.051204,0.1339,0.21832,0.30228,0.38726,0.47303,0.5591,0.64314,0.72681,0.81003,0.89247,0.97191,1.0503,1.1276,1.2036,1.2762,1.347,1.4162,1.4833,1.5459,1.6063,1.6645,1.7203,1.7717,1.8208,1.868,1.9129,1.9535,1.9915,2.0269,2.0593,2.086,2.1098,2.1311,2.15,2.1646,2.1778,2.1902,2.2019,2.2106,2.2188,2.2265,2.2333,2.2364,2.2385,2.24,2.2408,2.2384,2.2355,2.2321,2.2278,2.2199,2.2111,2.2014,2.1908,2.1765,2.1614,2.1458,2.1296,2.1103,2.0906,2.0705,2.05,2.0264,2.0023,1.9782,1.9537,1.9264,1.8991,1.8718,1.8444,1.8145,1.7845,1.7544,1.724,1.6909,1.658,1.6258,1.5944,1.5617,1.5301,1.4998,1.4703,1.439,1.408,1.3772,1.3462,1.3126,1.2789,1.2456,1.2129,1.1788,1.1455,1.1131,1.0814,1.0478,1.0149,0.98292,0.95173,0.91936,0.88808,0.85815,0.8295,0.79999,0.77188,0.74534,0.72022,0.6944,0.67,0.64718,0.62577,0.60368,0.583,0.56387,0.54613,0.52775,0.51077,0.49534,0.48131,0.46665,0.45339,0.44167,0.43131,0.42029,0.41047,0.40188,0.39426,0.38556,0.37769,0.37077,0.36463,0.3574,0.35094,0.34539,0.34056,0.33454,0.32913,0.32442,0.32018,0.31452,0.30921,0.30436,0.29981,0.29373,0.28794,0.2826,0.27759,0.27112,0.26493,0.25912,0.25351,0.24627,0.23918,0.23237,0.22573,0.21753,0.20951,0.20179,0.19424,0.18514,0.1762,0.16755,0.15905,0.149,0.13911,0.12954,0.12016,0.10925,0.098495,0.087991,0.077564,0.06556,0.053507,0.041488,0.029411,0.015617,0.0021406,-0.010599,-0.022446,-0.034729,-0.045888,-0.055893,-0.065044,-0.075238,-0.08503,-0.094503,-0.10394,-0.11503,-0.1262,-0.13731,-0.14839,-0.16088,-0.17316,-0.18503,-0.19654,-0.20923,-0.22151,-0.23329,-0.24469,-0.25727,-0.26952,-0.28134,-0.29285,-0.30552,-0.31783,-0.32963,-0.341,-0.35338,-0.36526,-0.37653,-0.3873,-0.39905,-0.41038,-0.42123,-0.43175,-0.4434,-0.45475,-0.46566,-0.4762,-0.48778,-0.49882,-0.50914,-0.5188,-0.52908,-0.53891,-0.54836,-0.55769,-0.56849,-0.57907,-0.5891,-0.59843,-0.6081,-0.61685,-0.62465,-0.63177,-0.63981,-0.64763,-0.65536,-0.66326,-0.67275,-0.6825,-0.69232,-0.70215,-0.71306,-0.72362,-0.73358,-0.74289,-0.75278,-0.76195,-0.77033,-0.77808,-0.78657,-0.79462,-0.80223,-0.80957,-0.81792,-0.826,-0.8337,-0.84105,-0.84919,-0.85689,-0.86403,-0.87068,-0.87808,-0.88492,-0.89108,-0.89661,-0.9027,-0.90814,-0.91286,-0.91699,-0.92177,-0.92612,-0.93002,-0.93365,-0.93825,-0.94261,-0.94663,-0.95032,-0.95479,-0.95882,-0.96224,-0.96514,-0.96865,-0.97166,-0.97413,-0.97625,-0.97925,-0.98208,-0.98474,-0.98736,-0.99114,-0.99491,-0.99858,-1.0022,-1.0067,-1.0111,-1.0151,-1.0188,-1.0233,-1.0273,-1.0308,-1.0337,-1.0371,-1.0401,-1.0426,-1.0448,-1.0479,-1.0509,-1.0535,-1.0559,-1.059,-1.0619,-1.0645,-1.067,-1.0705,-1.0738,-1.077,-1.08,-1.0839,-1.0876,-1.0912,-1.0948,-1.0994,-1.104,-1.1086,-1.1133,-1.119,-1.1245,-1.1294,-1.1337,-1.1381,-1.1417,-1.1445,-1.1466,-1.1495,-1.152,-1.154,-1.1559,-1.1586,-1.161,-1.1632,-1.1652,-1.168,-1.1705,-1.1726,-1.1744,-1.1769,-1.179,-1.1806,-1.1818,-1.1837,-1.1852,-1.1864,-1.1874,-1.1892,-1.1908,-1.192,-1.1929,-1.1946,-1.196,-1.1973,-1.1985,-1.2009,-1.2032,-1.2055,-1.2078,-1.2108,-1.2138,-1.2164,-1.2189,-1.2221,-1.2251,-1.2277,-1.23,-1.2329,-1.2352,-1.2367,-1.2374,-1.2382,-1.2381,-1.2372,-1.2355,-1.2344,-1.2326,-1.2299,-1.2263,-1.2228,-1.2181,-1.2118,-1.2041,-1.1958,-1.1855,-1.1728,-1.1578,-1.1413,-1.1219,-1.099,-1.0726,-1.0438,-1.0111,-0.97435,-0.93365,-0.89059,-0.84356,-0.79243,-0.73734,-0.67991,-0.61873,-0.55382,-0.48546,-0.41561,-0.34259,-0.26639,-0.18728,-0.10717,-0.024696,0.059897,0.14609,0.23172,0.31814,0.40517,0.49242,0.57757,0.66276,0.74808,0.8332,0.91608,0.9974,1.0763,1.1518,1.2207,1.2851,1.3454,1.4018,1.453,1.5021,1.5502,1.5981,1.6442,1.6904,1.7364,1.7814,1.8224,1.8613,1.8984,1.9333,1.964,1.9926,2.0194,2.0444,2.0653,2.0845,2.1023,2.1185,2.1307,2.1412,2.1502,2.1574,2.1604,2.1618,2.162,2.1611,2.1568,2.1515,2.1456,2.1389,2.1287,2.1175,2.1055,2.0926,2.0761,2.0588,2.0408,2.0222,2.0006,1.9787,1.9569,1.9352,1.911,1.8871,1.8637,1.8407,1.8155,1.7905,1.7657,1.7407,1.713,1.6851,1.6573,1.6296,1.5996,1.5698,1.5404,1.511,1.4794,1.4477,1.4164,1.3851,1.3516,1.3184,1.2858,1.2536,1.2197,1.1864,1.154,1.1221,1.0886,1.0558,1.0238,0.99248,0.95968,0.92767,0.89665,0.86654,0.83518,0.80488,0.77586,0.74801,0.71928,0.69176,0.66557,0.64059,0.61469,0.59017,0.56731,0.54613,0.52471,0.50518,0.4877,0.47205,0.45614,0.44169,0.4286,0.41649,0.40313,0.39057,0.37898,0.36834,0.35686,0.34649,0.33741,0.32944,0.32063,0.31278,0.30593,0.29981,0.29244,0.28563,0.2795,0.27388,0.26696,0.26059,0.25491,0.2498,0.24349,0.23768,0.23243,0.22758,0.22123,0.21531,0.21005,0.20536,0.19962,0.19436,0.18957,0.18498,0.17861,0.17238,0.16649,0.16091,0.1541,0.14755,0.14125,0.13498,0.12683,0.11874,0.11095,0.10349,0.094877,0.086755,0.079209,0.072008,0.063362,0.054697,0.045939,0.036819,0.025547,0.013926,0.0022264,-0.0094821,-0.022547,-0.035315,-0.047597,-0.059487,-0.072637,-0.085388,-0.097629,-0.10949,-0.12257,-0.1353,-0.14757,-0.1595,-0.17263,-0.1854,-0.19766,-0.2095,-0.22246,-0.23487,-0.24658,-0.25766,-0.2696,-0.28097,-0.29173,-0.30211,-0.31372,-0.32505,-0.33596,-0.34655,-0.35823,-0.36958,-0.38047,-0.391,-0.40264,-0.41374,-0.42407,-0.4336,-0.44367,-0.45288,-0.46118,-0.46879,-0.47726,-0.4853,-0.4929,-0.50027,-0.5089,-0.51738,-0.52559,-0.53361,-0.54276,-0.5517,-0.56034,-0.5688,-0.57848,-0.58794,-0.59704,-0.60584,-0.61563,-0.62509,-0.63413,-0.64288,-0.65268,-0.66216,-0.67123,-0.67992,-0.68951,-0.69863,-0.70714,-0.71511,-0.7238,-0.73196,-0.73951,-0.7466,-0.75458,-0.76218,-0.76936,-0.77623,-0.78407,-0.79164,-0.79888,-0.80586,-0.81384,-0.82151,-0.82872,-0.8355,-0.84298,-0.84987,-0.85601,-0.86142,-0.86732,-0.8724,-0.87657,-0.87994,-0.88377,-0.8871,-0.89005,-0.89291,-0.89709,-0.90133,-0.90549,-0.90958,-0.91461,-0.91942,-0.92389,-0.9281,-0.9332,-0.93803,-0.94248
-0.83024,-0.8345,-0.83853,-0.84222,-0.84567,-0.84979,-0.85373,-0.85746,-0.8611,-0.86565,-0.87007,-0.87421,-0.87807,-0.88247,-0.88652,-0.89017,-0.8935,-0.89756,-0.90127,-0.90454,-0.90739,-0.91067,-0.91355,-0.91602,-0.91819,-0.92108,-0.92366,-0.92579,-0.92745,-0.92949,-0.93095,-0.93178,-0.93208,-0.93282,-0.93325,-0.93345,-0.93362,-0.93482,-0.93606,-0.9372,-0.93825,-0.93998,-0.94158,-0.94302,-0.94443,-0.94679,-0.94916,-0.95145,-0.95368,-0.9567,-0.95956,-0.96214,-0.96449,-0.96744,-0.9702,-0.97278,-0.97529,-0.97869,-0.98196,-0.98495,-0.98763,-0.99075,-0.99355,-0.99607,-0.99844,-1.0017,-1.0049,-1.0079,-1.0108,-1.0143,-1.0176,-1.0205,-1.0231,-1.0263,-1.0292,-1.0317,-1.0339,-1.0367,-1.0389,-1.0406,-1.0416,-1.0429,-1.0435,-1.0436,-1.0432,-1.0433,-1.0433,-1.0432,-1.0432,-1.0441,-1.0451,-1.0458,-1.0463,-1.0472,-1.0478,-1.048,-1.0478,-1.0484,-1.0486,-1.0484,-1.0478,-1.0476,-1.0466,-1.0447,-1.0416,-1.0383,-1.0335,-1.0269,-1.0185,-1.0091,-0.99741,-0.98309,-0.96603,-0.9472,-0.92533,-0.90023,-0.8719,-0.84141,-0.80764,-0.77048,-0.72993,-0.68753,-0.64138,-0.59117,-0.53704,-0.48035,-0.42092,-0.35971,-0.29786,-0.23792,-0.17867,-0.12004,-0.061762,-0.0048333,0.053349,0.11387,0.17742,0.2432,0.31228,0.38426,0.45827,0.53147,0.60523,0.67923,0.753,0.82473,0.89577,0.96608,1.0354,1.1018,1.1669,1.2308,1.2931,1.3518,1.4086,1.4637,1.5168,1.566,1.6132,1.6585,1.702,1.7417,1.7793,1.8151,1.8486,1.8778,1.9049,1.9301,1.9535,1.9732,1.9913,2.0079,2.023,2.0342,2.044,2.0527,2.06,2.064,2.0669,2.0687,2.0693,2.0664,2.0625,2.0578,2.0523,2.044,2.0352,2.0262,2.0168,2.0049,1.9926,1.9802,1.9674,1.952,1.9362,1.9203,1.9042,1.8855,1.8666,1.8477,1.8286,1.8069,1.785,1.7629,1.7406,1.7157,1.6906,1.6655,1.6403,1.6129,1.5854,1.5581,1.5307,1.5013,1.4718,1.4426,1.4135,1.3823,1.3515,1.3213,1.2916,1.2605,1.2298,1.1996,1.1696,1.1378,1.1065,1.0764,1.0477,1.0189,0.9919,0.96665,0.94281,0.91807,0.89423,0.87119,0.84868,0.82468,0.80114,0.77828,0.75609,0.73288,0.71064,0.68959,0.66968,0.64909,0.62962,0.61134,0.59406,0.5759,0.55871,0.54268,0.52771,0.51212,0.49765,0.48438,0.47216,0.45922,0.44718,0.43611,0.42586,0.41466,0.40439,0.39527,0.38728,0.37891,0.37156,0.3652,0.35951,0.35257,0.3461,0.34022,0.33482,0.32843,0.32246,0.31694,0.31167,0.30495,0.2985,0.29252,0.28698,0.28044,0.2744,0.26893,0.26384,0.25749,0.25129,0.24523,0.23915,0.23145,0.22386,0.21664,0.20983,0.20215,0.19497,0.18835,0.18205,0.17442,0.16697,0.15978,0.15273,0.14439,0.13619,0.12821,0.12033,0.11108,0.10183,0.09261,0.083291,0.072391,0.061457,0.050688,0.040083,0.02839,0.016993,0.0060076,-0.0046671,-0.016493,-0.027956,-0.038907,-0.049418,-0.06077,-0.071743,-0.08231,-0.092625,-0.10412,-0.11528,-0.12586,-0.13583,-0.14635,-0.15605,-0.16484,-0.17287,-0.18154,-0.18974,-0.19755,-0.20527,-0.21438,-0.22361,-0.23289,-0.24231,-0.25304,-0.26386,-0.27466,-0.28551,-0.29765,-0.30975,-0.32164,-0.33335,-0.34602,-0.3583,-0.37002,-0.38119,-0.39292,-0.40406,-0.41451,-0.4244,-0.43498,-0.44498,-0.45429,-0.46297,-0.47215,-0.48082,-0.48902,-0.49692,-0.50585,-0.51455,-0.52288,-0.53087,-0.53956,-0.54785,-0.55571,-0.56328,-0.5717,-0.57994,-0.58791,-0.59568,-0.60434,-0.61252,-0.61995,-0.62654,-0.6332,-0.63895,-0.64385,-0.64815,-0.65316,-0.65788,-0.66234,-0.66666,-0.67192,-0.67707,-0.68199,-0.68673,-0.69227,-0.69751,-0.70233,-0.70679,-0.71188,-0.71666,-0.7211,-0.7253,-0.73039,-0.73524,-0.7397,-0.74382,-0.7485,-0.75286,-0.7569,-0.76079,-0.76567,-0.77044,-0.77498,-0.77931,-0.78432,-0.78909,-0.79356,-0.79783,-0.80296,-0.80782,-0.81228,-0.81635,-0.82087,-0.82496,-0.82856,-0.83178,-0.83563,-0.83904,-0.84188,-0.84412,-0.8467,-0.84859,-0.84974,-0.8503,-0.85127,-0.85199,-0.85261,-0.85338,-0.85549,-0.85783,-0.86024,-0.86264,-0.86572,-0.86859,-0.87114,-0.87344,-0.87653,-0.87938,-0.88193,-0.88424,-0.88722,-0.89002,-0.89259,-0.89505,-0.89834,-0.90153,-0.90454,-0.90739,-0.91097,-0.91428,-0.91718,-0.91974,-0.92279,-0.92558,-0.92811,-0.93054,-0.93391,-0.93717,-0.94017,-0.94288,-0.94609,-0.94895,-0.95144,-0.95368,-0.95668,-0.95951,-0.9621,-0.96449,-0.96751,-0.97015,-0.97224,-0.97375,-0.97549,-0.97657,-0.97697,-0.97683,-0.97715,-0.97719,-0.97702,-0.97683,-0.97763,-0.97846,-0.97922,-0.97992,-0.9813,-0.98255,-0.9836,-0.98455,-0.98633,-0.98799,-0.98945,-0.99072,-0.99263,-0.99432,-0.99571,-0.99689,-0.99876,-1.0004,-1.0018,-1.0031,-1.005,-1.0067,-1.0081,-1.0092,-1.011,-1.0123,-1.0133,-1.0139,-1.0148,-1.0151,-1.0143,-1.0123,-1.0099,-1.0057,-0.99932,-0.99072,-0.98085,-0.96893,-0.95513,-0.9398,-0.92437,-0.90758,-0.88914,-0.86881,-0.84745,-0.82322,-0.79548,-0.76388,-0.72932,-0.69051,-0.64742,-0.60031,-0.55096,-0.49795,-0.4413,-0.38119,-0.31916,-0.25392,-0.18551,-0.11423,-0.041881,0.032812,0.10966,0.18822,0.26651,0.34577,0.42578,0.5061,0.58474,0.66322,0.74152,0.81936,0.89491,0.96958,1.0433,1.1156,1.1846,1.2518,1.3173,1.3811,1.4411,1.4991,1.5553,1.6094,1.6594,1.7073,1.7535,1.7977,1.838,1.876,1.9116,1.9443,1.9718,1.9965,2.0186,2.0384,2.0542,2.0686,2.0823,2.0955,2.1064,2.117,2.1274,2.1372,2.1437,2.1494,2.1544,2.1588,2.1603,2.1613,2.1619,2.1619,2.1589,2.1553,2.1512,2.1464,2.1386,2.13,2.1209,2.1109,2.0979,2.0842,2.07,2.0554,2.038,2.0203,2.0024,1.9844,1.9638,1.943,1.9222,1.9011,1.8774,1.8535,1.8295,1.8054,1.779,1.7528,1.7271,1.702,1.6754,1.6495,1.6245,1.6002,1.5741,1.5483,1.5226,1.4968,1.4685,1.4399,1.4113,1.3826,1.3519,1.3215,1.2916,1.2622,1.2313,1.2009,1.1711,1.1419,1.1111,1.0809,1.0515,1.023,0.99357,0.96513,0.93795,0.91194,0.88516,0.85968,0.83572,0.81319,0.79022,0.76866,0.7486,0.72986,0.71044,0.69233,0.67568,0.66042,0.64475,0.6305,0.61778,0.60641,0.59449,0.58383,0.57449,0.56629,0.5574,0.54954,0.54279,0.53697,0.53027,0.52442,0.51951,0.51536,0.51023,0.50571,0.50183,0.49839,0.49358,0.48911,0.4851,0.48141,0.47644,0.4717,0.46725,0.4629,0.45691,0.45098,0.44529,0.43975,0.43284,0.42613,0.41974,0.41352,0.40586,0.39837,0.39117,0.3842,0.37588,0.36789,0.36041,0.35334,0.34516,0.33732,0.32983,0.32247,0.31355,0.30462,0.29579,0.28698,0.27674,0.26657,0.25663,0.24686,0.23578,0.22504,0.21485,0.2052,0.19465,0.18471,0.17543,0.16662,0.1567,0.14702,0.13754,0.12804,0.11699,0.1058,0.094586,0.083291,0.070563,0.057972,0.045751,0.033911,0.021146,0.0088902,-0.0027551,-0.013926,-0.026065,-0.037832,-0.049173,-0.060219,-0.072361,-0.084184,-0.095549,-0.10651,-0.11837,-0.12979,-0.14071,-0.15126,-0.16283,-0.17414,-0.18516,-0.19601,-0.20806,-0.21987,-0.23128,-0.24231,-0.2541,-0.26549,-0.27643,-0.28706,-0.29871,-0.30992,-0.32046,-0.33026,-0.34042,-0.34971,-0.3581,-0.36576,-0.37405,-0.3819,-0.38936,-0.39662,-0.405,-0.41326,-0.42126,-0.42902,-0.43764,-0.44593,-0.45383,-0.46143,-0.46995,-0.47822,-0.48615,-0.49384,-0.50241,-0.51072,-0.51864,-0.52624,-0.53461,-0.54259,-0.55007,-0.5571,-0.56482,-0.57205,-0.57871,-0.58488,-0.59166,-0.59803,-0.60396,-0.60957,-0.61602,-0.6221,-0.62766,-0.63272,-0.63826,-0.64321,-0.64749,-0.65123,-0.65558,-0.65957,-0.66321,-0.66666,-0.67105,-0.67518,-0.67888,-0.6821,-0.68576,-0.68879,-0.69113,-0.6929,-0.69523,-0.69723,-0.69896,-0.70061,-0.70336,-0.70613,-0.70881,-0.71142,-0.71486,-0.71811,-0.72105,-0.72376,-0.72725,-0.7305,-0.73342,-0.7361,-0.73956,-0.74279,-0.74573,-0.74845,-0.75197,-0.75523,-0.75815,-0.76079,-0.76413,-0.76727,-0.77023,-0.77314,-0.77711,-0.78106,-0.78487,-0.78857,-0.79305,-0.79738,-0.80151,-0.80555,-0.81049,-0.81531,-0.81984,-0.82406,-0.82885,-0.8331,-0.83665,-0.83949,-0.84254,-0.84483,-0.84634,-0.84721,-0.84852,-0.84941,-0.84995,-0.8503,-0.85152,-0.8527,-0.85381,-0.85493,-0.85697,-0.85897,-0.86085,-0.86264,-0.86527,-0.86773,-0.86992,-0.8719,-0.87457,-0.87701,-0.87918,-0.88116,-0.88391,-0.88642,-0.88858,-0.89042,-0.89279,-0.89486,-0.8966,-0.89813,-0.90045,-0.90257,-0.90436,-0.90585,-0.90789,-0.9096,-0.91094,-0.91202,-0.91386,-0.91551,-0.91692,-0.91819,-0.92021,-0.92216,-0.92404,-0.92591,-0.92876,-0.9314,-0.93357,-0.93517,-0.93696,-0.93805,-0.93843,-0.93825,-0.93868,-0.93863,-0.93798,-0.93671,-0.93573,-0.93379,-0.93057,-0.92591,-0.92067,-0.91346,-0.90394,-0.89196,-0.87853,-0.86215,-0.84249,-0.81943,-0.79412,-0.76517,-0.73243,-0.69598,-0.65722,-0.61476,-0.56848,-0.51853,-0.46641,-0.41069,-0.35135,-0.2886,-0.22411,-0.15668,-0.086478,-0.013926,0.059167,0.13404,0.21058,0.28853,0.36585,0.4444,0.52421,0.60486,0.68446,0.76336,0.8406,0.91503,0.98388,1.0488,1.1101,1.1681,1.2217,1.2739,1.3257,1.378,1.4293,1.4814,1.534,1.5863,1.6352,1.6825,1.728,1.7715,1.8109,1.8488,1.8859,1.9227,1.9577,1.994,2.0326
1.9701,1.993,2.0158,2.0381,2.0591,2.0759,2.0911,2.1049,2.1173,2.1262,2.1339,2.1407,2.1464,2.1484,2.1495,2.1499,2.1497,2.1464,2.1426,2.1384,2.1335,2.1254,2.1167,2.1076,2.0979,2.0853,2.0724,2.0594,2.0461,2.0303,2.0144,1.9987,1.9831,1.965,1.9468,1.9287,1.9103,1.8889,1.8672,1.8452,1.8229,1.7979,1.7727,1.7477,1.7226,1.6953,1.6681,1.6411,1.6142,1.585,1.5558,1.5268,1.4977,1.4664,1.4351,1.404,1.3732,1.3403,1.3078,1.2756,1.2438,1.21,1.1768,1.1444,1.1127,1.0799,1.0481,1.0175,0.98817,0.95785,0.92859,0.90047,0.87331,0.84493,0.81774,0.79213,0.76816,0.74408,0.72179,0.70134,0.68242,0.66274,0.64431,0.62722,0.61124,0.59443,0.57859,0.56377,0.54977,0.53469,0.52041,0.50712,0.49477,0.48144,0.46935,0.45875,0.44947,0.43972,0.43061,0.42169,0.41227,0.39995,0.38654,0.37225,0.35727,0.34028,0.32368,0.30819,0.29418,0.28037,0.26833,0.25797,0.24888,0.23881,0.22953,0.22107,0.21329,0.2046,0.19657,0.18928,0.18255,0.17466,0.16718,0.16017,0.15344,0.14526,0.13734,0.12984,0.1227,0.11434,0.1064,0.098997,0.091962,0.083658,0.075535,0.067591,0.059608,0.049916,0.040134,0.030431,0.020783,0.0097812,-0.00097612,-0.011307,-0.021277,-0.032409,-0.04315,-0.053406,-0.063337,-0.074493,-0.085475,-0.096257,-0.10702,-0.11929,-0.13155,-0.14362,-0.15555,-0.16866,-0.18147,-0.19379,-0.20569,-0.21861,-0.23104,-0.24288,-0.25423,-0.26656,-0.27848,-0.28995,-0.30114,-0.31347,-0.32568,-0.33771,-0.34967,-0.36294,-0.37589,-0.38822,-0.39982,-0.41182,-0.42285,-0.43281,-0.44188,-0.45154,-0.46061,-0.46917,-0.47747,-0.48697,-0.49638,-0.5056,-0.51468,-0.52483,-0.53473,-0.54427,-0.5535,-0.5637,-0.5736,-0.5831,-0.59233,-0.60253,-0.61244,-0.62196,-0.63115,-0.64122,-0.65084,-0.65986,-0.66836,-0.67747,-0.68614,-0.69437,-0.70233,-0.71136,-0.72012,-0.72843,-0.7363,-0.74476,-0.7527,-0.76008,-0.76704,-0.77487,-0.78236,-0.78943,-0.79616,-0.80365,-0.81078,-0.81743,-0.82366,-0.83058,-0.837,-0.84277,-0.84792,-0.85357,-0.85847,-0.86249,-0.86572,-0.86926,-0.87223,-0.87474,-0.87704,-0.88047,-0.88384,-0.88701,-0.88998,-0.8937,-0.89712,-0.90016,-0.90292,-0.90657,-0.90996,-0.91304,-0.91587,-0.91951,-0.92291,-0.92598,-0.92881,-0.93245,-0.93584,-0.93891,-0.94175,-0.94542,-0.94883,-0.9519,-0.95469,-0.95824,-0.96157,-0.96466,-0.96763,-0.97163,-0.97545,-0.97896,-0.98219,-0.98604,-0.98969,-0.99321,-0.99675,-1.0015,-1.0062,-1.0106,-1.0145,-1.0189,-1.0225,-1.0253,-1.0275,-1.0302,-1.0325,-1.0348,-1.0372,-1.041,-1.045,-1.0492,-1.0534,-1.0584,-1.0634,-1.0681,-1.0728,-1.0784,-1.0838,-1.089,-1.0938,-1.0992,-1.1043,-1.1089,-1.1132,-1.1182,-1.1229,-1.1271,-1.131,-1.1355,-1.1394,-1.1428,-1.1456,-1.1487,-1.1514,-1.1535,-1.1553,-1.1577,-1.1599,-1.1618,-1.1634,-1.1656,-1.1675,-1.1689,-1.1698,-1.1712,-1.1721,-1.1727,-1.1731,-1.1743,-1.1753,-1.176,-1.1763,-1.1771,-1.1774,-1.1771,-1.1763,-1.1761,-1.1757,-1.1752,-1.1747,-1.1754,-1.1764,-1.1778,-1.1796,-1.1826,-1.186,-1.1893,-1.1925,-1.1964,-1.2,-1.203,-1.2054,-1.2083,-1.2104,-1.2116,-1.2119,-1.2122,-1.2111,-1.2084,-1.2038,-1.1983,-1.1905,-1.1799,-1.1666,-1.1515,-1.1334,-1.112,-1.0873,-1.0605,-1.0304,-0.99671,-0.95954,-0.92042,-0.87733,-0.82994,-0.77836,-0.72397,-0.6666,-0.60723,-0.54703,-0.48866,-0.43076,-0.3732,-0.3157,-0.25922,-0.20113,-0.14037,-0.076279,-0.009752,0.060252,0.13328,0.20844,0.28278,0.35789,0.43353,0.50933,0.58355,0.65748,0.73101,0.80375,0.87357,0.94219,1.0096,1.0755,1.1379,1.1984,1.2569,1.3133,1.3654,1.4152,1.4631,1.5091,1.5512,1.5913,1.6297,1.666,1.698,1.728,1.7561,1.7825,1.805,1.8259,1.8453,1.8633,1.8776,1.8906,1.9026,1.9135,1.9212,1.9278,1.9334,1.9378,1.9385,1.938,1.9367,1.9345,1.9294,1.9237,1.9179,1.9119,1.9033,1.8945,1.8856,1.8763,1.8642,1.8517,1.839,1.8261,1.8107,1.795,1.7792,1.763,1.7441,1.7248,1.7052,1.6854,1.663,1.6403,1.6176,1.5948,1.5695,1.5441,1.5186,1.4929,1.4647,1.4363,1.408,1.3797,1.349,1.3185,1.2883,1.2583,1.2264,1.1947,1.1634,1.1321,1.099,1.0663,1.0348,1.0043,0.97331,0.9438,0.91596,0.88949,0.86214,0.83564,0.80983,0.78434,0.75688,0.72974,0.70326,0.67757,0.65107,0.62572,0.60172,0.57889,0.55517,0.53264,0.51147,0.49153,0.47101,0.45173,0.43381,0.41712,0.39975,0.38365,0.36898,0.35565,0.34187,0.32945,0.31847,0.30873,0.29834,0.28898,0.28067,0.27315,0.26454,0.25655,0.24923,0.24241,0.23434,0.22676,0.21978,0.21329,0.20562,0.19844,0.19187,0.18579,0.1785,0.1717,0.16554,0.15991,0.15315,0.14685,0.14108,0.13564,0.12883,0.12223,0.11592,0.10976,0.10216,0.094723,0.087575,0.080638,0.072339,0.064375,0.056925,0.049902,0.041783,0.033993,0.026531,0.019166,0.010218,0.0012477,-0.0076147,-0.016424,-0.026611,-0.036566,-0.046094,-0.055249,-0.065501,-0.07538,-0.084839,-0.094073,-0.10465,-0.11518,-0.12563,-0.13613,-0.14822,-0.16018,-0.1718,-0.18305,-0.19516,-0.20696,-0.21848,-0.22996,-0.24304,-0.25595,-0.26835,-0.28011,-0.29231,-0.30363,-0.31404,-0.32379,-0.33449,-0.34497,-0.35534,-0.36585,-0.37799,-0.39027,-0.40242,-0.41438,-0.42723,-0.43964,-0.4515,-0.46291,-0.4753,-0.48727,-0.49875,-0.50982,-0.52178,-0.53334,-0.54442,-0.55512,-0.5667,-0.57789,-0.58857,-0.5988,-0.60982,-0.6203,-0.63008,-0.63924,-0.64897,-0.65812,-0.66669,-0.67483,-0.6839,-0.69262,-0.7009,-0.7088,-0.71743,-0.72571,-0.73359,-0.74115,-0.74965,-0.75772,-0.76514,-0.77189,-0.77902,-0.78541,-0.79105,-0.79616,-0.80201,-0.80766,-0.81319,-0.8188,-0.82575,-0.83276,-0.83963,-0.84631,-0.8537,-0.86076,-0.86743,-0.87381,-0.88112,-0.88819,-0.89491,-0.90131,-0.9084,-0.91512,-0.92136,-0.92719,-0.93369,-0.93968,-0.94505,-0.94984,-0.95507,-0.95976,-0.9639,-0.96763,-0.97214,-0.97634,-0.98021,-0.98381,-0.98818,-0.99234,-0.99624,-0.99999,-1.0047,-1.0093,-1.0136,-1.0178,-1.0228,-1.0277,-1.0325,-1.0372,-1.0429,-1.0485,-1.0536,-1.0582,-1.0631,-1.0672,-1.0704,-1.0728,-1.0754,-1.0775,-1.0792,-1.0809,-1.0837,-1.0866,-1.0895,-1.0922,-1.0956,-1.0986,-1.1012,-1.1035,-1.1065,-1.1094,-1.1121,-1.1148,-1.1187,-1.1225,-1.1261,-1.1294,-1.1332,-1.1366,-1.1396,-1.1423,-1.1459,-1.1492,-1.1523,-1.1553,-1.1589,-1.1624,-1.1655,-1.1682,-1.1716,-1.1747,-1.1773,-1.1796,-1.1824,-1.1849,-1.1872,-1.1893,-1.1922,-1.1949,-1.1972,-1.199,-1.2011,-1.2026,-1.2035,-1.2038,-1.2046,-1.2053,-1.206,-1.2071,-1.2095,-1.2123,-1.2153,-1.2184,-1.2222,-1.2257,-1.2287,-1.2313,-1.2344,-1.2369,-1.2386,-1.2394,-1.2403,-1.2402,-1.2388,-1.2362,-1.2332,-1.2285,-1.222,-1.2135,-1.204,-1.1922,-1.1775,-1.1601,-1.141,-1.1188,-1.0933,-1.0647,-1.0342,-1.0004,-0.96307,-0.92234,-0.87934,-0.83291,-0.78303,-0.72983,-0.67511,-0.61699,-0.55532,-0.49041,-0.42388,-0.35566,-0.28682,-0.21864,-0.15382,-0.091068,-0.030276,0.028872,0.085368,0.14204,0.20007,0.2602,0.32166,0.38543,0.45101,0.51742,0.58162,0.64523,0.70805,0.76978,0.82877,0.88647,0.94291,0.99788,1.0494,1.0992,1.1474,1.1936,1.2359,1.2761,1.3144,1.3505,1.3826,1.4126,1.4407,1.467,1.4895,1.5101,1.5291,1.5463,1.5595,1.571,1.5812,1.59,1.5954,1.5995,1.6026,1.6045,1.603,1.6004,1.5972,1.5932,1.5865,1.5793,1.5719,1.5641,1.5537,1.5429,1.5319,1.5204,1.5062,1.4917,1.477,1.4622,1.445,1.4277,1.4103,1.3926,1.3723,1.3518,1.331,1.3101,1.2868,1.2634,1.2399,1.2163,1.1903,1.1641,1.1377,1.1111,1.0821,1.0529,1.0238,0.99464,0.96361,0.93272,0.90213,0.8717,0.83941,0.80729,0.77548,0.7439,0.7106,0.67778,0.64574,0.61448,0.58231,0.55106,0.52084,0.49153,0.4612,0.43201,0.40434,0.3783,0.35225,0.32816,0.30618,0.28609,0.26599,0.24731,0.22988,0.21329,0.19543,0.17829,0.16212,0.14696,0.13141,0.11706,0.10398,0.091962,0.079134,0.067264,0.056477,0.046667,0.036207,0.026757,0.018432,0.011077,0.0030522,-0.004171,-0.01059,-0.016424,-0.023403,-0.029848,-0.035591,-0.040689,-0.04659,-0.051804,-0.056254,-0.060102,-0.065024,-0.069395,-0.073102,-0.076279,-0.080411,-0.084173,-0.087576,-0.090838,-0.09561,-0.10026,-0.1046,-0.10863,-0.11371,-0.11838,-0.12257,-0.12643,-0.13153,-0.13646,-0.14117,-0.14584,-0.15196,-0.15808,-0.1641,-0.17011,-0.1775,-0.18485,-0.19206,-0.19922,-0.2078,-0.21635,-0.22478,-0.2332,-0.243,-0.25279,-0.26243,-0.27202,-0.28291,-0.29362,-0.304,-0.31408,-0.32517,-0.3359,-0.34619,-0.35614,-0.36715,-0.37786,-0.38818,-0.3982,-0.40927,-0.42001,-0.43031,-0.44026,-0.45121,-0.46185,-0.47217,-0.48232,-0.49366,-0.505,-0.51628,-0.52762,-0.54027,-0.55274,-0.56474,-0.57615,-0.58804,-0.59905,-0.60906,-0.61821,-0.62781,-0.63685,-0.64542,-0.6538,-0.66339,-0.67288,-0.68209,-0.69101,-0.70062,-0.70978,-0.7184,-0.7266,-0.73564,-0.74432,-0.75259,-0.76057,-0.76943,-0.77805,-0.78639
-0.066522,-0.076825,-0.086543,-0.095357,-0.10322,-0.1115,-0.11876,-0.12497,-0.13035,-0.13653,-0.14207,-0.14688,-0.15109,-0.15614,-0.16054,-0.16414,-0.16705,-0.1707,-0.17375,-0.17619,-0.17822,-0.18141,-0.18435,-0.18697,-0.18939,-0.193,-0.19638,-0.1994,-0.20215,-0.20604,-0.20972,-0.21315,-0.21651,-0.22129,-0.2261,-0.23085,-0.23566,-0.24181,-0.24812,-0.25454,-0.26119,-0.26955,-0.27783,-0.2857,-0.2931,-0.30109,-0.30885,-0.31667,-0.32502,-0.33563,-0.34704,-0.359,-0.37129,-0.38483,-0.39784,-0.40986,-0.42076,-0.43156,-0.44154,-0.45104,-0.46065,-0.47228,-0.4845,-0.49714,-0.51011,-0.52422,-0.53831,-0.55221,-0.56596,-0.58081,-0.5954,-0.60958,-0.6234,-0.638,-0.6522,-0.66591,-0.67925,-0.6934,-0.70718,-0.72052,-0.7335,-0.7473,-0.76071,-0.77363,-0.78616,-0.79937,-0.81227,-0.82486,-0.83722,-0.85052,-0.86336,-0.87546,-0.88669,-0.89789,-0.908,-0.91695,-0.92498,-0.93333,-0.94126,-0.94901,-0.95689,-0.9662,-0.97579,-0.98548,-0.99519,-1.0057,-1.0159,-1.0256,-1.0351,-1.0452,-1.055,-1.0643,-1.0734,-1.0831,-1.0925,-1.1015,-1.1101,-1.1192,-1.1278,-1.1359,-1.1436,-1.1518,-1.1595,-1.1669,-1.1739,-1.1815,-1.1889,-1.1959,-1.2026,-1.2099,-1.2169,-1.2235,-1.2297,-1.2365,-1.2428,-1.2485,-1.2537,-1.2591,-1.2641,-1.2686,-1.2728,-1.2777,-1.2821,-1.2858,-1.2888,-1.2917,-1.2937,-1.2948,-1.2952,-1.296,-1.2964,-1.2966,-1.2968,-1.2978,-1.299,-1.3002,-1.3016,-1.3038,-1.3059,-1.3079,-1.3095,-1.3117,-1.3135,-1.3149,-1.3159,-1.3174,-1.3187,-1.3197,-1.3207,-1.3225,-1.3242,-1.3257,-1.3271,-1.329,-1.3306,-1.3321,-1.3335,-1.3356,-1.3377,-1.3397,-1.3414,-1.3439,-1.3462,-1.3486,-1.351,-1.3545,-1.3581,-1.3618,-1.3654,-1.3696,-1.3735,-1.3769,-1.3797,-1.3828,-1.3851,-1.3867,-1.3877,-1.389,-1.3898,-1.3904,-1.3909,-1.3923,-1.3934,-1.3941,-1.3941,-1.3942,-1.3932,-1.3911,-1.3877,-1.3841,-1.379,-1.3723,-1.3638,-1.3544,-1.343,-1.3291,-1.3127,-1.2947,-1.274,-1.2502,-1.2234,-1.1948,-1.163,-1.1278,-1.0893,-1.0486,-1.0047,-0.95757,-0.90743,-0.85581,-0.80102,-0.74272,-0.68085,-0.61649,-0.54878,-0.47802,-0.4048,-0.33141,-0.25645,-0.18021,-0.10322,-0.027323,0.047937,0.12185,0.19357,0.26087,0.32517,0.38669,0.44568,0.50099,0.55525,0.60949,0.66429,0.71869,0.77401,0.83003,0.88608,0.93947,0.99194,1.0434,1.0935,1.1406,1.1861,1.23,1.2722,1.3106,1.3472,1.3823,1.4158,1.4459,1.4744,1.5017,1.5275,1.5498,1.5707,1.5904,1.6089,1.6242,1.6383,1.6513,1.6632,1.6715,1.6787,1.685,1.6903,1.6926,1.6939,1.6942,1.6935,1.6891,1.6839,1.6785,1.6727,1.6649,1.6561,1.6456,1.6328,1.6147,1.5943,1.5724,1.5499,1.5257,1.5027,1.4815,1.4621,1.4424,1.424,1.4064,1.3887,1.3676,1.3447,1.3195,1.2914,1.2585,1.2223,1.1831,1.1414,1.0956,1.0499,1.0062,0.96586,0.92838,0.8959,0.86832,0.84459,0.82141,0.79921,0.77657,0.75205,0.7227,0.69044,0.65582,0.61961,0.58117,0.5438,0.50897,0.47759,0.44855,0.42369,0.4028,0.38505,0.3676,0.35154,0.3363,0.32122,0.3042,0.2873,0.27106,0.2558,0.24042,0.22672,0.2149,0.20474,0.19422,0.18496,0.17686,0.16963,0.16138,0.15397,0.14767,0.14251,0.13708,0.1329,0.13001,0.12815,0.12545,0.1235,0.12234,0.12177,0.1201,0.11897,0.11851,0.11857,0.1176,0.11705,0.11691,0.11698,0.1155,0.11416,0.11308,0.11219,0.11001,0.10796,0.1061,0.10421,0.10068,0.097046,0.093459,0.089852,0.084734,0.079759,0.07511,0.070704,0.065086,0.059559,0.054073,0.048365,0.040724,0.03277,0.024681,0.016452,0.0067741,-0.0028837,-0.012388,-0.021843,-0.032771,-0.043643,-0.054332,-0.064926,-0.076888,-0.088662,-0.10008,-0.1112,-0.12334,-0.13515,-0.1465,-0.15747,-0.16955,-0.18094,-0.19129,-0.20056,-0.20997,-0.2183,-0.22568,-0.23247,-0.24042,-0.24833,-0.25627,-0.26438,-0.27413,-0.28373,-0.29278,-0.30108,-0.30965,-0.31725,-0.32388,-0.3298,-0.33668,-0.34302,-0.34869,-0.35374,-0.35941,-0.36428,-0.3682,-0.37129,-0.37488,-0.37785,-0.38028,-0.38246,-0.38597,-0.38934,-0.39242,-0.39523,-0.39892,-0.40227,-0.40525,-0.40799,-0.41192,-0.41568,-0.41913,-0.42235,-0.42659,-0.43046,-0.43381,-0.43671,-0.44041,-0.44375,-0.44671,-0.44948,-0.45347,-0.45728,-0.46073,-0.46384,-0.46774,-0.47119,-0.4741,-0.4766,-0.48006,-0.48311,-0.48565,-0.48777,-0.4907,-0.49327,-0.49544,-0.49735,-0.50033,-0.503,-0.50519,-0.50692,-0.50935,-0.51124,-0.51251,-0.5133,-0.51496,-0.5163,-0.51729,-0.51809,-0.52001,-0.52177,-0.52324,-0.52447,-0.52665,-0.52849,-0.52987,-0.53086,-0.53271,-0.53415,-0.5351,-0.53564,-0.53705,-0.53807,-0.53864,-0.53883,-0.53992,-0.54061,-0.54076,-0.54043,-0.54084,-0.54073,-0.54003,-0.53883,-0.53844,-0.53755,-0.53606,-0.53405,-0.53274,-0.53097,-0.52871,-0.52607,-0.52442,-0.52235,-0.51969,-0.51649,-0.51391,-0.51087,-0.50741,-0.50373,-0.5013,-0.49871,-0.4958,-0.49256,-0.49011,-0.4872,-0.48372,-0.47979,-0.4768,-0.47343,-0.46959,-0.46543,-0.46228,-0.45887,-0.45511,-0.45107,-0.4481,-0.44462,-0.44033,-0.43512,-0.43016,-0.42387,-0.41596,-0.40639,-0.39657,-0.38488,-0.37113,-0.35533,-0.33899,-0.32038,-0.29924,-0.27555,-0.2508,-0.22324,-0.19265,-0.15907,-0.12418,-0.086261,-0.045178,-0.0011,0.044292,0.092442,0.14334,0.19676,0.2505,0.30689,0.36617,0.42813,0.4909,0.55505,0.61963,0.68343,0.7434,0.8013,0.85728,0.91161,0.96287,1.0141,1.0665,1.1206,1.1753,1.2318,1.29,1.3488,1.4051,1.4608,1.5161,1.5706,1.6224,1.6732,1.723,1.7717,1.8166,1.8602,1.9027,1.944,1.9817,2.0182,2.0536,2.0876,2.1179,2.1467,2.1745,2.2009,2.2236,2.2452,2.2658,2.2855,2.3017,2.3171,2.3319,2.3461,2.3571,2.3675,2.3777,2.3876,2.3945,2.4008,2.4066,2.4115,2.4128,2.4131,2.4127,2.4115,2.4072,2.4026,2.3982,2.394,2.3874,2.381,2.3748,2.3684,2.3591,2.3493,2.3392,2.3285,2.3148,2.3006,2.2861,2.2711,2.2531,2.2345,2.2156,2.1961,2.1734,2.1501,2.1264,2.102,2.0745,2.0465,2.0185,1.9903,1.9595,1.9288,1.8981,1.8674,1.8342,1.8009,1.7679,1.735,1.6999,1.6652,1.6311,1.5977,1.5628,1.5285,1.495,1.4621,1.4275,1.3939,1.3618,1.3313,1.3003,1.2712,1.2439,1.218,1.191,1.1651,1.1401,1.1159,1.0901,1.0649,1.0405,1.0169,0.99202,0.96797,0.94494,0.92278,0.8994,0.87691,0.8555,0.83502,0.81347,0.79293,0.77356,0.75524,0.73601,0.71786,0.70092,0.68503,0.66822,0.65246,0.6379,0.62439,0.61002,0.59669,0.58452,0.57333,0.56121,0.54998,0.53971,0.53025,0.51967,0.50994,0.50127,0.49355,0.48505,0.47745,0.47079,0.46483,0.45759,0.45089,0.44484,0.4393,0.43254,0.42627,0.4206,0.41536,0.40878,0.40257,0.39684,0.39143,0.3846,0.37804,0.37186,0.3659,0.35844,0.35115,0.34411,0.33718,0.32866,0.32021,0.31192,0.30367,0.29381,0.28407,0.27462,0.26537,0.25476,0.24432,0.2341,0.22389,0.21198,0.2,0.18804,0.17602,0.16241,0.14878,0.13526,0.12177,0.10671,0.091782,0.077151,0.062726,0.047063,0.031495,0.016031,0.00049567,-0.016697,-0.033787,-0.050443,-0.066522,-0.083255,-0.099002,-0.11358,-0.12716,-0.14123,-0.15477,-0.16802,-0.18141,-0.19675,-0.21239,-0.22805,-0.24364,-0.26014,-0.27631,-0.29204,-0.30746,-0.32415,-0.34046,-0.35617,-0.37129,-0.38696,-0.40201,-0.41641,-0.43033,-0.44524,-0.45962,-0.47328,-0.48618,-0.49943,-0.51183,-0.52332,-0.53405,-0.54545,-0.55619,-0.56618,-0.57553,-0.5855,-0.59492,-0.60378,-0.61223,-0.6216,-0.63062,-0.63918,-0.64734,-0.65621,-0.66455,-0.67222,-0.67925,-0.68685,-0.69367,-0.69961,-0.70478,-0.71035,-0.71551,-0.72046,-0.72552,-0.73216,-0.73902,-0.74589,-0.75265,-0.76013,-0.7672,-0.77373,-0.77978,-0.78655,-0.79283,-0.79852,-0.80371,-0.80951,-0.81488,-0.81981,-0.82445,-0.82997,-0.83529,-0.84034,-0.8452,-0.85093,-0.85637,-0.86136,-0.86594,-0.87112,-0.8758,-0.87989,-0.88349,-0.88771,-0.89151,-0.89485,-0.89785,-0.90165,-0.90508,-0.90805,-0.91062,-0.91375,-0.91661,-0.91924,-0.92179,-0.92546,-0.92895,-0.93201,-0.93455,-0.93736,-0.93957,-0.94121,-0.94253,-0.94481,-0.94712,-0.94949,-0.95211,-0.956,-0.96024,-0.96478,-0.96966,-0.97584,-0.98223,-0.98869,-0.99519,-1.0026,-1.0099,-1.017,-1.0239,-1.0316,-1.0389,-1.0459,-1.0526,-1.06,-1.067,-1.0736,-1.0798,-1.0865,-1.0929,-1.0986,-1.1037,-1.1092,-1.1138,-1.1173,-1.1197,-1.1217,-1.1222,-1.121,-1.1181,-1.1144,-1.1085,-1.1002,-1.0893,-1.077,-1.0623,-1.0456,-1.0271,-1.0085,-0.98854,-0.96712,-0.94413,-0.92062,-0.89477,-0.86601,-0.83403,-0.79976,-0.76194,-0.7206,-0.67606,-0.63014,-0.5815,-0.53024,-0.4766,-0.42217,-0.36566,-0.30713,-0.24683,-0.18645,-0.12473,-0.061763,0.0020913,0.064978,0.12831,0.19201,0.2558,0.31788,0.37963,0.44095,0.50153,0.55949,0.61634,0.67209,0.72652,0.7778,0.8276,0.87599,0.92278,0.96618,1.0078,1.0477,1.0855,1.1195,1.1515,1.1817,1.21,1.2347,1.2575,1.2786,1.2978,1.3129,1.326,1.3375,1.3472,1.3534,1.3585,1.3633,1.368,1.3709,1.375,1.3808
-1.2607,-1.2657,-1.2704,-1.2748,-1.279,-1.2842,-1.2891,-1.2935,-1.2972,-1.3015,-1.3048,-1.3068,-1.3074,-1.3076,-1.3061,-1.3027,-1.2972,-1.2911,-1.2828,-1.272,-1.2587,-1.2441,-1.2266,-1.2058,-1.1817,-1.1553,-1.1256,-1.0924,-1.0559,-1.0181,-0.97656,-0.93103,-0.88155,-0.82955,-0.77471,-0.71798,-0.66052,-0.60523,-0.55044,-0.49597,-0.44152,-0.38822,-0.33348,-0.27638,-0.21644,-0.15492,-0.090497,-0.023536,0.045141,0.11264,0.18061,0.24881,0.31686,0.38279,0.44811,0.51277,0.57642,0.63687,0.69594,0.75362,0.80961,0.86171,0.91186,0.96012,1.0063,1.0483,1.0882,1.1263,1.1624,1.1946,1.2248,1.2534,1.2801,1.3026,1.3232,1.3421,1.3591,1.3721,1.3833,1.3932,1.4017,1.4067,1.4106,1.4137,1.4159,1.415,1.4132,1.4109,1.4078,1.4016,1.3947,1.3873,1.3794,1.3686,1.3572,1.3453,1.3328,1.3171,1.3006,1.2836,1.2659,1.2451,1.2235,1.2015,1.1787,1.1528,1.1262,1.0991,1.0712,1.0404,1.009,0.97737,0.94547,0.9112,0.87674,0.84226,0.80758,0.77048,0.7333,0.69633,0.65956,0.621,0.583,0.54584,0.5095,0.47193,0.43534,0.39991,0.36553,0.33015,0.29593,0.26311,0.2317,0.19975,0.16964,0.14175,0.11611,0.090846,0.067937,0.047415,0.028919,0.010242,-0.0069989,-0.022957,-0.037997,-0.054319,-0.069728,-0.083906,-0.096803,-0.10997,-0.12176,-0.13215,-0.14141,-0.15175,-0.16104,-0.16906,-0.17589,-0.18313,-0.18921,-0.19413,-0.19819,-0.20339,-0.20789,-0.21153,-0.21441,-0.21823,-0.22122,-0.22327,-0.22455,-0.22687,-0.22861,-0.22978,-0.23064,-0.23304,-0.23524,-0.23711,-0.23875,-0.24176,-0.2445,-0.24683,-0.24889,-0.25239,-0.25563,-0.25848,-0.26105,-0.26504,-0.26875,-0.2721,-0.27525,-0.27985,-0.28441,-0.28889,-0.2935,-0.29998,-0.30662,-0.31322,-0.31986,-0.32803,-0.33618,-0.34422,-0.3523,-0.36208,-0.37185,-0.38142,-0.39083,-0.40157,-0.41197,-0.42188,-0.43138,-0.44204,-0.45235,-0.46226,-0.47194,-0.48306,-0.49395,-0.50441,-0.51452,-0.52572,-0.53654,-0.54695,-0.55711,-0.56864,-0.57998,-0.59099,-0.60172,-0.61366,-0.62516,-0.63602,-0.64633,-0.65746,-0.66821,-0.67861,-0.68891,-0.70076,-0.71234,-0.72331,-0.73352,-0.74412,-0.7537,-0.76224,-0.77002,-0.77873,-0.78723,-0.79571,-0.80449,-0.8152,-0.82632,-0.83765,-0.84911,-0.8618,-0.87426,-0.88624,-0.89777,-0.9102,-0.92213,-0.93349,-0.94441,-0.95629,-0.96774,-0.97863,-0.98902,-1.0002,-1.0107,-1.0205,-1.0296,-1.0392,-1.0482,-1.0565,-1.064,-1.0724,-1.08,-1.0866,-1.0924,-1.0986,-1.1039,-1.1086,-1.1127,-1.1179,-1.1227,-1.1271,-1.131,-1.1355,-1.1394,-1.1426,-1.1452,-1.1483,-1.1507,-1.1523,-1.1533,-1.1548,-1.1559,-1.1567,-1.1573,-1.1593,-1.1613,-1.1634,-1.1654,-1.1687,-1.1718,-1.1748,-1.1776,-1.1815,-1.1852,-1.1886,-1.1918,-1.1959,-1.1997,-1.203,-1.206,-1.2098,-1.2131,-1.2159,-1.2182,-1.2211,-1.2234,-1.2251,-1.2263,-1.2281,-1.2294,-1.2301,-1.2303,-1.2313,-1.232,-1.2323,-1.2324,-1.2334,-1.2342,-1.2345,-1.2344,-1.2348,-1.2349,-1.2347,-1.2344,-1.2353,-1.2361,-1.2365,-1.2364,-1.2369,-1.2368,-1.2359,-1.2344,-1.2336,-1.2325,-1.2314,-1.2303,-1.2308,-1.2314,-1.2319,-1.2324,-1.2336,-1.2344,-1.2346,-1.2344,-1.2349,-1.235,-1.2348,-1.2344,-1.2351,-1.2354,-1.2352,-1.2344,-1.234,-1.2328,-1.2309,-1.2283,-1.2264,-1.2236,-1.2196,-1.2141,-1.2082,-1.2006,-1.191,-1.1796,-1.1677,-1.1538,-1.1375,-1.1188,-1.099,-1.0761,-1.0495,-1.0194,-0.98717,-0.952,-0.91449,-0.87547,-0.83735,-0.79846,-0.75854,-0.7173,-0.67591,-0.63187,-0.58431,-0.53277,-0.47851,-0.42002,-0.35747,-0.29147,-0.2247,-0.15534,-0.083522,-0.0096084,0.064388,0.13992,0.2168,0.29456,0.37078,0.4473,0.52407,0.60075,0.67506,0.74891,0.82226,0.89478,0.96411,1.0322,1.0991,1.1645,1.2259,1.2856,1.3436,1.3997,1.4517,1.5018,1.55,1.5964,1.6383,1.6786,1.7173,1.7546,1.7879,1.8194,1.849,1.8762,1.8983,1.918,1.9355,1.9512,1.9629,1.9735,1.9838,1.9938,2.0013,2.0086,2.0157,2.0222,2.0251,2.027,2.0281,2.0283,2.025,2.0208,2.0159,2.0101,2.0005,1.9899,1.9782,1.9654,1.9487,1.9308,1.9121,1.8924,1.8693,1.8453,1.8207,1.7951,1.766,1.7359,1.7051,1.6734,1.6385,1.603,1.5674,1.5315,1.4931,1.4548,1.4169,1.3794,1.3398,1.3008,1.2627,1.2253,1.1864,1.1489,1.1131,1.0793,1.0451,1.0131,0.98335,0.95561,0.92723,0.90033,0.87478,0.85017,0.82387,0.7984,0.77404,0.75081,0.72661,0.7039,0.68295,0.66361,0.64359,0.6251,0.6082,0.59264,0.576,0.56059,0.54658,0.53383,0.52023,0.5079,0.49696,0.4872,0.47634,0.4666,0.45812,0.4507,0.44221,0.43465,0.4281,0.42231,0.41503,0.40848,0.40284,0.39797,0.39187,0.38647,0.38183,0.3777,0.37189,0.36649,0.3617,0.35742,0.35168,0.34663,0.3425,0.33917,0.33469,0.33088,0.32773,0.32497,0.32038,0.31607,0.31222,0.30875,0.30381,0.29916,0.29482,0.2905,0.28405,0.27745,0.27085,0.26414,0.25547,0.24677,0.2382,0.22967,0.21926,0.20897,0.19895,0.18911,0.17759,0.16628,0.1553,0.1445,0.132,0.11968,0.10767,0.095836,0.082354,0.069036,0.056003,0.043114,0.028482,0.014062,4.5279e-05,-0.013664,-0.028756,-0.043593,-0.05811,-0.072469,-0.088522,-0.1042,-0.11916,-0.1333,-0.14817,-0.16193,-0.17446,-0.18602,-0.19849,-0.21058,-0.2225,-0.23469,-0.24919,-0.26402,-0.27885,-0.2935,-0.30923,-0.32436,-0.33868,-0.3523,-0.367,-0.38105,-0.39436,-0.40705,-0.42078,-0.43388,-0.44617,-0.45775,-0.47015,-0.48175,-0.49245,-0.50236,-0.51311,-0.52313,-0.53233,-0.54088,-0.55042,-0.55937,-0.56763,-0.57536,-0.58412,-0.59245,-0.60029,-0.6078,-0.61655,-0.62495,-0.63284,-0.64024,-0.64856,-0.65617,-0.66284,-0.66863,-0.67502,-0.68051,-0.68506,-0.68891,-0.69368,-0.6982,-0.70259,-0.70716,-0.71358,-0.72025,-0.72692,-0.73352,-0.74126,-0.74865,-0.75551,-0.76191,-0.76931,-0.77622,-0.78252,-0.78827,-0.79493,-0.80094,-0.80614,-0.81058,-0.8156,-0.81994,-0.82361,-0.8268,-0.8311,-0.83497,-0.83826,-0.84099,-0.84446,-0.84731,-0.84948,-0.85113,-0.85375,-0.85598,-0.85777,-0.85924,-0.86187,-0.86415,-0.86595,-0.86735,-0.86965,-0.87172,-0.87359,-0.87547,-0.87889,-0.88222,-0.88517,-0.88763,-0.89072,-0.89309,-0.89469,-0.89574,-0.89778,-0.89969,-0.90162,-0.90385,-0.9079,-0.91238,-0.91713,-0.9221,-0.92845,-0.93472,-0.9407,-0.94644,-0.9532,-0.95981,-0.96627,-0.9728,-0.98083,-0.989,-0.99714,-1.0052,-1.0145,-1.0234,-1.0318,-1.0397,-1.0484,-1.0567,-1.0646,-1.0722,-1.0809,-1.0894,-1.0973,-1.1046,-1.1124,-1.1195,-1.1257,-1.131,-1.1368,-1.1416,-1.1451,-1.1472,-1.1492,-1.1496,-1.1483,-1.1452,-1.1417,-1.1366,-1.1296,-1.1208,-1.1118,-1.1006,-1.0868,-1.0701,-1.0518,-1.0303,-1.0052,-0.97685,-0.94684,-0.9133,-0.876,-0.83491,-0.79167,-0.74451,-0.69328,-0.63822,-0.58126,-0.52089,-0.45727,-0.39083,-0.32381,-0.25446,-0.18276,-0.10897,-0.035125,0.040577,0.11814,0.19722,0.27559,0.35492,0.43507,0.51558,0.594,0.67224,0.7503,0.82786,0.90277,0.97681,1.05,1.1219,1.19,1.2569,1.3228,1.3875,1.4488,1.508,1.5649,1.6187,1.6663,1.7104,1.7512,1.789,1.822,1.8535,1.8843,1.9147,1.943,1.9712,1.9991,2.0263,2.0493,2.071,2.0918,2.1114,2.1278,2.143,2.1573,2.1702,2.1789,2.186,2.192,2.1966,2.1973,2.1968,2.1953,2.1925,2.1858,2.1777,2.1685,2.1581,2.1437,2.1283,2.1122,2.0952,2.0748,2.0538,2.0323,2.0101,1.9844,1.958,1.9307,1.9026,1.8708,1.8386,1.8065,1.7748,1.7413,1.7087,1.6774,1.6471,1.615,1.5833,1.5516,1.5193,1.4835,1.447,1.4102,1.3733,1.3344,1.296,1.2583,1.2212,1.1823,1.1442,1.1072,1.0712,1.0339,0.99782,0.963,0.92925,0.89419,0.86014,0.82726,0.79542,0.76224,0.73039,0.70022,0.67172,0.64285,0.61568,0.59026,0.56628,0.54121,0.51752,0.49548,0.47503,0.45418,0.43505,0.41774,0.40203,0.3856,0.37063,0.35724,0.34525,0.33252,0.32115,0.31126,0.30267,0.29327,0.28507,0.27813,0.27225,0.26526,0.2592,0.25416,0.24995,0.2445,0.23967,0.23549,0.2317,0.22619,0.22093,0.21604,0.21142,0.20515,0.19926,0.19395,0.18911,0.18285,0.17704,0.17178,0.16681,0.16015,0.15356,0.14706,0.14045,0.13178,0.12303,0.11444,0.10597,0.09592,0.086109,0.076674,0.067447,0.056498,0.045709,0.03521,0.024864,0.012889,0.0010704,-0.01045,-0.021775,-0.034656,-0.047182,-0.059106,-0.070442,-0.082893,-0.094543,-0.10521,-0.11505,-0.12583,-0.13607,-0.14588,-0.15561,-0.16728,-0.17904,-0.19068,-0.20225,-0.21522,-0.22802,-0.24054,-0.25294,-0.26704,-0.28096,-0.2945,-0.30769,-0.32206,-0.33601,-0.34942,-0.36244,-0.37679,-0.39076,-0.4042,-0.41719,-0.43128,-0.44483,-0.45768,-0.46991,-0.48311,-0.49565,-0.50744,-0.51858,-0.53069,-0.54219,-0.55297,-0.56319,-0.57446,-0.58529,-0.59566,-0.60577,-0.61717,-0.62844,-0.63949,-0.65038,-0.66261,-0.67432,-0.68515,-0.69499,-0.70509,-0.71413,-0.72214,-0.72947,-0.73789,-0.74606,-0.754,-0.76191,-0.77121,-0.78048,-0.78955,-0.79841,-0.80836,-0.81786,-0.8267
-0.85285,-0.85568,-0.8583,-0.86064,-0.86274,-0.86541,-0.86777,-0.86971,-0.87122,-0.87315,-0.87453,-0.87528,-0.87546,-0.8759,-0.87596,-0.87574,-0.87546,-0.87616,-0.87692,-0.87763,-0.87828,-0.87958,-0.88073,-0.88168,-0.88252,-0.88414,-0.88566,-0.88699,-0.88817,-0.88999,-0.89159,-0.89285,-0.89382,-0.89533,-0.89654,-0.89742,-0.89806,-0.89935,-0.90049,-0.90144,-0.9023,-0.90392,-0.90544,-0.90677,-0.90795,-0.90976,-0.91134,-0.91261,-0.9136,-0.91517,-0.91642,-0.91729,-0.91784,-0.91888,-0.91968,-0.92025,-0.92067,-0.92184,-0.9228,-0.92336,-0.92349,-0.92388,-0.92376,-0.92311,-0.92208,-0.92164,-0.92099,-0.92015,-0.91925,-0.91914,-0.9191,-0.91911,-0.91925,-0.9204,-0.92157,-0.92262,-0.92349,-0.92492,-0.9261,-0.92701,-0.92773,-0.92921,-0.93048,-0.93141,-0.93197,-0.93293,-0.93333,-0.93302,-0.93197,-0.93104,-0.92918,-0.92621,-0.92208,-0.91768,-0.91186,-0.9044,-0.89524,-0.88515,-0.87315,-0.8591,-0.84296,-0.82589,-0.80625,-0.7837,-0.75819,-0.73066,-0.70066,-0.66863,-0.63527,-0.6024,-0.56892,-0.53472,-0.49963,-0.46458,-0.42747,-0.38751,-0.34422,-0.29833,-0.24889,-0.19616,-0.14077,-0.084911,-0.027316,0.031864,0.092356,0.15268,0.21405,0.27644,0.33961,0.40186,0.46443,0.52717,0.58968,0.65009,0.70983,0.76888,0.82705,0.88262,0.93715,0.99074,1.0432,1.0928,1.1412,1.1883,1.234,1.2763,1.3172,1.3568,1.395,1.4301,1.4639,1.4965,1.5278,1.5558,1.5827,1.6087,1.6338,1.6561,1.6772,1.6972,1.7157,1.7305,1.7437,1.7557,1.7666,1.7747,1.7823,1.7899,1.7977,1.8036,1.8099,1.8164,1.8231,1.8275,1.8318,1.836,1.8401,1.8418,1.8433,1.8446,1.8457,1.8443,1.8426,1.8408,1.8387,1.8341,1.8293,1.8243,1.8189,1.8109,1.8025,1.7939,1.785,1.7735,1.7617,1.7495,1.7369,1.7216,1.7059,1.6898,1.6734,1.6545,1.6352,1.6157,1.5956,1.5731,1.5503,1.5277,1.5052,1.4811,1.4575,1.4345,1.412,1.3879,1.3639,1.34,1.3159,1.2893,1.2625,1.2355,1.2085,1.1798,1.1514,1.1233,1.0955,1.0661,1.0371,1.0088,0.98105,0.95225,0.92422,0.89712,0.87084,0.84357,0.81721,0.79195,0.76771,0.74277,0.71888,0.69616,0.67446,0.652,0.63056,0.6103,0.5911,0.57128,0.55261,0.53524,0.51904,0.50236,0.48671,0.47209,0.45829,0.44354,0.42958,0.41661,0.4046,0.39209,0.38061,0.37025,0.3608,0.35059,0.3411,0.33233,0.32407,0.31472,0.30571,0.2971,0.28874,0.27913,0.26976,0.26075,0.25201,0.24212,0.23246,0.22309,0.21386,0.2033,0.19289,0.18278,0.17289,0.16191,0.15118,0.14076,0.1305,0.11899,0.10758,0.096383,0.085292,0.073002,0.060853,0.048962,0.037254,0.024429,0.011859,-0.00032471,-0.012196,-0.025063,-0.037608,-0.049757,-0.061646,-0.074544,-0.08732,-0.099941,-0.11251,-0.12631,-0.1398,-0.15267,-0.16479,-0.17713,-0.18852,-0.19893,-0.20858,-0.21891,-0.22886,-0.23852,-0.24814,-0.25902,-0.26999,-0.28096,-0.29194,-0.30402,-0.3159,-0.32741,-0.33857,-0.35044,-0.36193,-0.373,-0.38378,-0.39547,-0.40694,-0.4181,-0.42899,-0.44067,-0.45193,-0.46263,-0.47279,-0.4834,-0.49351,-0.50311,-0.51235,-0.52243,-0.53221,-0.54155,-0.5505,-0.56001,-0.56907,-0.57763,-0.58582,-0.59468,-0.60329,-0.61161,-0.61973,-0.62866,-0.63719,-0.64508,-0.65222,-0.65944,-0.66582,-0.67135,-0.67624,-0.68166,-0.68672,-0.69145,-0.69602,-0.70144,-0.70681,-0.71205,-0.71722,-0.72322,-0.72905,-0.73458,-0.73982,-0.74565,-0.75115,-0.75624,-0.76101,-0.76643,-0.77155,-0.77632,-0.78079,-0.78587,-0.79065,-0.79506,-0.79916,-0.80385,-0.80826,-0.81233,-0.81612,-0.82054,-0.82465,-0.82835,-0.83166,-0.83544,-0.83882,-0.84177,-0.84437,-0.84759,-0.85055,-0.85321,-0.85568,-0.85881,-0.86177,-0.86448,-0.86698,-0.87008,-0.87285,-0.87512,-0.87687,-0.87893,-0.88034,-0.88103,-0.88111,-0.88145,-0.88145,-0.88126,-0.88111,-0.88207,-0.88317,-0.88428,-0.88535,-0.88701,-0.88852,-0.88981,-0.891,-0.89301,-0.89491,-0.89658,-0.89806,-0.90011,-0.90196,-0.9036,-0.90513,-0.90743,-0.90965,-0.9117,-0.9136,-0.91615,-0.91845,-0.92042,-0.92208,-0.92424,-0.92613,-0.92773,-0.92914,-0.93129,-0.93323,-0.93486,-0.93621,-0.93799,-0.93951,-0.94076,-0.94186,-0.9437,-0.94534,-0.94663,-0.94751,-0.9487,-0.94935,-0.94939,-0.94892,-0.94884,-0.9485,-0.94799,-0.94751,-0.94804,-0.94873,-0.9495,-0.95034,-0.95194,-0.95347,-0.95482,-0.95599,-0.95779,-0.95937,-0.96063,-0.96164,-0.96323,-0.96451,-0.96538,-0.96588,-0.96683,-0.9674,-0.96754,-0.96729,-0.96755,-0.96728,-0.96628,-0.96447,-0.9626,-0.95953,-0.955,-0.94892,-0.94213,-0.93358,-0.92312,-0.91078,-0.89746,-0.88208,-0.86441,-0.84437,-0.82303,-0.79886,-0.77158,-0.74123,-0.70894,-0.67425,-0.63768,-0.59995,-0.56289,-0.52543,-0.48746,-0.44877,-0.41031,-0.36995,-0.32689,-0.28064,-0.23192,-0.17987,-0.12478,-0.067298,-0.0097337,0.049333,0.10981,0.17148,0.23295,0.29525,0.35824,0.42155,0.48332,0.54496,0.6064,0.66739,0.72622,0.78427,0.84151,0.89769,0.95101,1.0031,1.0542,1.104,1.1509,1.1964,1.2407,1.2834,1.3228,1.3605,1.3969,1.4318,1.4634,1.4938,1.5233,1.5518,1.5776,1.602,1.6251,1.6465,1.6639,1.6794,1.6934,1.7058,1.7152,1.7239,1.7325,1.7412,1.7481,1.7554,1.7631,1.7708,1.7763,1.7816,1.7869,1.792,1.7949,1.7977,1.8006,1.8033,1.8038,1.8042,1.8045,1.8047,1.8026,1.8002,1.7977,1.7949,1.7896,1.784,1.7783,1.7723,1.7638,1.7549,1.7455,1.7355,1.7226,1.7088,1.6943,1.679,1.6608,1.6419,1.6226,1.6027,1.5803,1.5575,1.5344,1.5109,1.485,1.459,1.4332,1.4077,1.3808,1.3546,1.3292,1.3046,1.2787,1.253,1.2274,1.2015,1.1729,1.1439,1.1148,1.0856,1.0549,1.0245,0.99473,0.96551,0.93495,0.90512,0.87623,0.84824,0.81947,0.7917,0.76507,0.73945,0.71304,0.6877,0.66356,0.64055,0.61699,0.59453,0.57324,0.55295,0.5319,0.51186,0.493,0.47524,0.457,0.43985,0.42386,0.40884,0.39308,0.37816,0.36415,0.35091,0.33689,0.32367,0.31142,0.30005,0.28806,0.27698,0.26691,0.25766,0.24769,0.2383,0.22946,0.22093,0.21111,0.20144,0.19202,0.18278,0.17236,0.16223,0.15254,0.14322,0.1329,0.12288,0.11319,0.10366,0.09282,0.082087,0.071588,0.061273,0.049887,0.038759,0.027991,0.017474,0.005882,-0.0055228,-0.016686,-0.027737,-0.039992,-0.052134,-0.064043,-0.075775,-0.088545,-0.10108,-0.11327,-0.12523,-0.13823,-0.15105,-0.16362,-0.17609,-0.18964,-0.20314,-0.21651,-0.22978,-0.2441,-0.258,-0.27116,-0.28347,-0.29589,-0.3073,-0.31767,-0.32726,-0.33742,-0.34728,-0.35699,-0.36682,-0.3781,-0.38952,-0.40086,-0.41204,-0.42389,-0.43538,-0.44646,-0.45725,-0.46897,-0.48045,-0.4916,-0.50246,-0.51402,-0.52522,-0.53594,-0.54626,-0.55718,-0.56766,-0.57765,-0.58723,-0.59744,-0.60722,-0.61651,-0.62538,-0.63481,-0.64384,-0.65243,-0.6607,-0.66969,-0.67837,-0.68666,-0.69461,-0.70314,-0.7114,-0.71936,-0.72711,-0.73562,-0.74377,-0.75132,-0.75819,-0.76516,-0.77125,-0.77641,-0.78079,-0.78544,-0.78968,-0.7937,-0.79775,-0.80295,-0.8083,-0.81366,-0.81894,-0.82484,-0.8304,-0.83549,-0.84013,-0.84523,-0.84995,-0.85433,-0.8585,-0.86345,-0.86822,-0.87269,-0.87687,-0.88149,-0.88584,-0.88991,-0.89382,-0.89854,-0.90303,-0.90713,-0.91078,-0.91468,-0.91807,-0.92096,-0.92349,-0.92664,-0.92957,-0.93226,-0.9348,-0.93799,-0.94099,-0.94368,-0.9461,-0.94901,-0.95164,-0.95394,-0.95599,-0.95865,-0.96101,-0.96295,-0.96447,-0.96631,-0.96765,-0.96841,-0.9687,-0.96938,-0.96978,-0.96997,-0.97012,-0.97117,-0.97227,-0.97333,-0.97436,-0.97604,-0.97757,-0.97888,-0.98001,-0.98176,-0.9833,-0.98458,-0.98566,-0.98733,-0.98883,-0.99013,-0.99131,-0.99318,-0.99499,-0.99671,-0.99838,-1.0008,-1.0031,-1.0051,-1.0069,-1.009,-1.0109,-1.0125,-1.0139,-1.016,-1.018,-1.0196,-1.021,-1.0227,-1.0243,-1.0255,-1.0266,-1.0285,-1.0301,-1.0314,-1.0323,-1.0334,-1.0341,-1.0341,-1.0337,-1.0337,-1.0334,-1.0328,-1.0323,-1.0325,-1.0329,-1.0333,-1.0337,-1.0349,-1.0361,-1.0371,-1.0379,-1.0393,-1.0405,-1.0414,-1.0422,-1.0435,-1.0447,-1.0457,-1.0464,-1.0477,-1.0487,-1.0492,-1.0492,-1.0496,-1.0493,-1.0483,-1.0464,-1.0445,-1.0416,-1.0375,-1.0323,-1.0267,-1.0195,-1.0106,-0.99979,-0.98772,-0.97361,-0.95737,-0.93903,-0.91984,-0.89812,-0.87347,-0.84579,-0.81588,-0.7834,-0.74887,-0.71298,-0.67763,-0.64169,-0.60503,-0.56745,-0.52979,-0.49012,-0.44771,-0.40215,-0.3542,-0.30292,-0.24854,-0.19163,-0.1343,-0.075275,-0.014702,0.047144,0.10883,0.17141,0.23478,0.29863,0.36123,0.42386,0.48646,0.54871,0.60889,0.66835,0.72702,0.78466,0.83953,0.89314,0.94554,0.99659,1.0446,1.0912,1.1365,1.1803,1.2209,1.2601,1.2979,1.3343,1.3673,1.399,1.4295,1.4586,1.4846,1.5091,1.5321,1.5533,1.5706,1.5861,1.6,1.6126,1.6221,1.6308,1.6394,1.6479,1.6547,1.6617,1.6689,1.6762,1.6811,1.6858,1.6903,1.6945,1.6964,1.6979,1.6992,1.7002,1.6988,1.6971,1.6953,1.6931,1.6886,1.6837,1.6787,1.6734,1.6655,1.6575,1.6493,1.6409,1.6301,1.619,1.6076,1.5956,1.581,1.5661,1.5511,1.5363,1.5199,1.5043,1.4899
-1.2811,-1.2848,-1.2882,-1.2911,-1.2936,-1.2964,-1.2984,-1.2993,-1.2991,-1.2985,-1.2963,-1.2924,-1.2867,-1.2801,-1.2714,-1.2602,-1.2465,-1.2311,-1.2129,-1.1917,-1.1676,-1.1416,-1.1125,-1.0801,-1.0443,-1.0064,-0.96516,-0.92049,-0.8726,-0.82277,-0.77022,-0.71516,-0.65794,-0.60039,-0.54084,-0.47917,-0.41559,-0.35143,-0.28652,-0.22169,-0.158,-0.09786,-0.04003,0.015565,0.069117,0.11965,0.16944,0.21935,0.26992,0.3203,0.37167,0.42386,0.47627,0.52653,0.57616,0.62504,0.67292,0.71822,0.76237,0.80548,0.84742,0.88643,0.92429,0.96117,0.99698,1.0299,1.0618,1.0929,1.123,1.1504,1.1768,1.2023,1.2269,1.2484,1.2691,1.2892,1.3086,1.3256,1.342,1.3581,1.3737,1.3865,1.399,1.4113,1.4235,1.4337,1.4436,1.4533,1.4623,1.4683,1.4737,1.4786,1.4831,1.4853,1.4874,1.49,1.4928,1.4938,1.4952,1.4973,1.4997,1.5002,1.5011,1.5023,1.5038,1.5034,1.5032,1.5034,1.5038,1.5023,1.5008,1.4995,1.4983,1.4948,1.4913,1.4879,1.4845,1.4789,1.4733,1.4678,1.4623,1.4545,1.4465,1.4386,1.4304,1.42,1.4094,1.3986,1.3875,1.374,1.3602,1.3463,1.3321,1.3157,1.2992,1.2825,1.2656,1.2465,1.2273,1.2083,1.1895,1.1689,1.1486,1.1287,1.1092,1.0878,1.0665,1.0451,1.0233,0.99905,0.97445,0.94975,0.92497,0.89844,0.87201,0.84583,0.81972,0.79173,0.76385,0.73627,0.70893,0.68011,0.65171,0.62395,0.59675,0.56838,0.54064,0.51367,0.48735,0.45991,0.43316,0.40724,0.3821,0.35605,0.3309,0.30684,0.28377,0.26005,0.23735,0.21577,0.19514,0.1738,0.15328,0.13366,0.11482,0.095126,0.076411,0.058958,0.042804,0.026552,0.011701,-0.0017196,-0.013976,-0.026796,-0.038837,-0.050173,-0.061061,-0.073115,-0.084816,-0.096018,-0.10676,-0.11838,-0.12944,-0.13984,-0.14969,-0.16049,-0.17079,-0.18054,-0.18985,-0.20015,-0.21006,-0.21952,-0.22863,-0.23878,-0.24864,-0.25814,-0.26741,-0.27779,-0.28797,-0.29787,-0.30757,-0.31838,-0.32896,-0.33918,-0.34911,-0.36001,-0.3706,-0.38078,-0.39066,-0.40156,-0.41215,-0.42234,-0.43221,-0.44295,-0.45345,-0.46369,-0.47375,-0.48493,-0.49574,-0.50589,-0.5153,-0.52496,-0.53369,-0.54148,-0.54854,-0.55624,-0.56356,-0.57061,-0.57762,-0.58589,-0.59423,-0.60255,-0.61086,-0.62017,-0.62934,-0.63822,-0.64686,-0.65641,-0.66564,-0.67444,-0.68287,-0.69202,-0.70083,-0.70929,-0.71749,-0.72661,-0.73547,-0.74396,-0.75211,-0.76093,-0.76941,-0.77751,-0.78535,-0.79407,-0.80256,-0.81072,-0.81859,-0.82718,-0.8354,-0.84313,-0.85044,-0.85831,-0.86579,-0.87283,-0.87952,-0.88692,-0.89386,-0.90017,-0.90583,-0.91176,-0.91694,-0.92137,-0.92522,-0.9296,-0.93373,-0.93773,-0.94184,-0.9472,-0.95275,-0.95836,-0.964,-0.97046,-0.97681,-0.98294,-0.98893,-0.99575,-1.0024,-1.0089,-1.0152,-1.0223,-1.0292,-1.0356,-1.0416,-1.048,-1.054,-1.0597,-1.0651,-1.0713,-1.0774,-1.0831,-1.0886,-1.0947,-1.1005,-1.1058,-1.1108,-1.1163,-1.1215,-1.1261,-1.1302,-1.1347,-1.1387,-1.1422,-1.1454,-1.1492,-1.1528,-1.1561,-1.1593,-1.1631,-1.1666,-1.1695,-1.1717,-1.1741,-1.1758,-1.1768,-1.1773,-1.1783,-1.1792,-1.1802,-1.1814,-1.1839,-1.1867,-1.1896,-1.1925,-1.196,-1.1993,-1.2023,-1.205,-1.2082,-1.2111,-1.2137,-1.216,-1.2189,-1.2215,-1.2237,-1.2257,-1.2283,-1.2305,-1.2325,-1.234,-1.2362,-1.238,-1.2396,-1.241,-1.2431,-1.2451,-1.2471,-1.2493,-1.2524,-1.2556,-1.2587,-1.2617,-1.2654,-1.2688,-1.2718,-1.2742,-1.277,-1.2791,-1.2805,-1.2811,-1.282,-1.2819,-1.2807,-1.2784,-1.2757,-1.2717,-1.2661,-1.259,-1.2512,-1.2415,-1.2294,-1.2147,-1.1982,-1.1787,-1.156,-1.1302,-1.1024,-1.0713,-1.0367,-0.99862,-0.95828,-0.91454,-0.86743,-0.8172,-0.76538,-0.71084,-0.65369,-0.59424,-0.53406,-0.47209,-0.40847,-0.34358,-0.27907,-0.21382,-0.14797,-0.081834,-0.016988,0.04765,0.11198,0.17575,0.23715,0.29796,0.35833,0.4181,0.47579,0.53209,0.5865,0.6383,0.68524,0.72906,0.77008,0.80864,0.84364,0.87747,0.9109,0.94436,0.97654,1.0091,1.0419,1.0745,1.1047,1.1341,1.1629,1.1909,1.2162,1.2407,1.2646,1.2878,1.3083,1.3282,1.3477,1.3667,1.3832,1.3993,1.4151,1.4304,1.4433,1.4558,1.4681,1.4803,1.4902,1.4999,1.5096,1.5191,1.5262,1.5331,1.54,1.5468,1.5513,1.5558,1.5603,1.5648,1.5669,1.5691,1.5717,1.5745,1.5754,1.5764,1.5776,1.5786,1.577,1.575,1.5728,1.5703,1.5655,1.5608,1.5564,1.5523,1.5465,1.5411,1.5362,1.5315,1.5247,1.518,1.5115,1.5052,1.4969,1.4887,1.4804,1.472,1.461,1.4497,1.4382,1.4263,1.412,1.3975,1.3829,1.3681,1.351,1.3337,1.3164,1.2989,1.2791,1.2591,1.2389,1.2186,1.1959,1.173,1.1501,1.1272,1.1022,1.0771,1.0517,1.0261,0.99799,0.96991,0.94227,0.91527,0.88737,0.86052,0.83482,0.81002,0.78404,0.75844,0.73306,0.70754,0.67981,0.65192,0.62421,0.59675,0.56814,0.54009,0.51275,0.48596,0.45786,0.43038,0.40375,0.37794,0.3514,0.32586,0.3015,0.27823,0.25437,0.23162,0.21007,0.1896,0.16855,0.14857,0.12978,0.11205,0.093777,0.07658,0.06056,0.045574,0.030034,0.01541,0.0017292,-0.011206,-0.025052,-0.038238,-0.050662,-0.062446,-0.075003,-0.087026,-0.098486,-0.10953,-0.12172,-0.13333,-0.14406,-0.15385,-0.1639,-0.17296,-0.18105,-0.18847,-0.19689,-0.20497,-0.21272,-0.22032,-0.22913,-0.23786,-0.24644,-0.25494,-0.26471,-0.27427,-0.28347,-0.29234,-0.30211,-0.31159,-0.32073,-0.32973,-0.33998,-0.35014,-0.36009,-0.36989,-0.38069,-0.39126,-0.40148,-0.41143,-0.42239,-0.43302,-0.44319,-0.45298,-0.46356,-0.47379,-0.4836,-0.49314,-0.50372,-0.51399,-0.52384,-0.5333,-0.54346,-0.55329,-0.56278,-0.57208,-0.58248,-0.59255,-0.60203,-0.61086,-0.61996,-0.62827,-0.63578,-0.64271,-0.65038,-0.65774,-0.66482,-0.67179,-0.67981,-0.68782,-0.69574,-0.70364,-0.71259,-0.72141,-0.72995,-0.73826,-0.74736,-0.75618,-0.76465,-0.77289,-0.78199,-0.79084,-0.79933,-0.80751,-0.81634,-0.82484,-0.83295,-0.84074,-0.84932,-0.85754,-0.86529,-0.8726,-0.88042,-0.88785,-0.89489,-0.90168,-0.90935,-0.9168,-0.92393,-0.93076,-0.93821,-0.94531,-0.95202,-0.95846,-0.96563,-0.97263,-0.97945,-0.98616,-0.99371,-1.001,-1.0077,-1.0139,-1.0202,-1.0257,-1.0305,-1.0346,-1.0392,-1.0434,-1.0474,-1.0512,-1.0561,-1.061,-1.0659,-1.0706,-1.0762,-1.0815,-1.0866,-1.0914,-1.0969,-1.1022,-1.1073,-1.1122,-1.1179,-1.1233,-1.1283,-1.133,-1.1379,-1.1423,-1.1462,-1.1496,-1.1535,-1.157,-1.1603,-1.1634,-1.1673,-1.1712,-1.1749,-1.1787,-1.1832,-1.1876,-1.1916,-1.1953,-1.1993,-1.203,-1.2062,-1.2091,-1.2126,-1.2157,-1.2183,-1.2202,-1.2222,-1.2236,-1.2242,-1.2244,-1.2249,-1.2252,-1.2254,-1.2257,-1.2271,-1.2286,-1.23,-1.2313,-1.233,-1.2344,-1.2357,-1.2368,-1.2389,-1.2409,-1.243,-1.2451,-1.248,-1.2509,-1.2536,-1.2562,-1.2595,-1.2627,-1.2657,-1.2687,-1.2724,-1.276,-1.2794,-1.2825,-1.2862,-1.2896,-1.2926,-1.295,-1.2977,-1.2997,-1.3007,-1.3005,-1.2999,-1.2978,-1.2939,-1.2881,-1.2812,-1.2719,-1.2599,-1.2451,-1.2286,-1.2095,-1.1881,-1.1648,-1.1411,-1.116,-1.0893,-1.0609,-1.0319,-1.0002,-0.96528,-0.92661,-0.88493,-0.83926,-0.78975,-0.73688,-0.68262,-0.62584,-0.56672,-0.50561,-0.44402,-0.38091,-0.3164,-0.25079,-0.18572,-0.12005,-0.053914,0.012337,0.076941,0.14124,0.20519,0.26854,0.32965,0.3898,0.44892,0.50674,0.56149,0.61478,0.66672,0.71724,0.76479,0.81087,0.85554,0.89866,0.93836,0.97664,1.0137,1.0496,1.0826,1.1142,1.1444,1.1729,1.1974,1.2201,1.2409,1.2601,1.276,1.291,1.3059,1.321,1.3348,1.3492,1.3641,1.3792,1.3921,1.4049,1.4178,1.4304,1.441,1.4514,1.4618,1.472,1.4798,1.4874,1.495,1.5025,1.5077,1.5129,1.5181,1.5232,1.526,1.5287,1.5315,1.5343,1.5349,1.5356,1.5363,1.5371,1.5356,1.5341,1.5328,1.5315,1.5282,1.5249,1.5219,1.5191,1.5141,1.5092,1.5045,1.4997,1.4926,1.4853,1.4781,1.4706,1.4608,1.451,1.4414,1.4318,1.4204,1.4091,1.3983,1.3875,1.3747,1.3619,1.3492,1.3363,1.3211,1.3056,1.2899,1.274,1.2556,1.2369,1.2182,1.1992,1.178,1.1565,1.135,1.1133,1.0895,1.0653,1.041,1.0164,0.98939,0.96245,0.93591,0.90973,0.88223,0.85466,0.82665,0.79756,0.76498,0.73085,0.69546,0.65907,0.62043,0.5821,0.54495,0.50951,0.47466,0.44224,0.4124,0.38487,0.35747,0.33203,0.30849,0.28654,0.26446,0.24342,0.22321,0.20345,0.18216,0.16128,0.14111,0.12174,0.1019,0.08305,0.065269,0.048344,0.030483,0.013389,-0.0027928,-0.01813,-0.034053,-0.049076,-0.063107,-0.076295,-0.090161,-0.10331,-0.11572,-0.12754,-0.14029,-0.15245,-0.16388,-0.17462,-0.18601,-0.19673,-0.20672,-0.21617,-0.22655,-0.23649,-0.24592,-0.25494,-0.26494,-0.27453,-0.28362,-0.29234,-0.30197,-0.31138,-0.32058,-0.32973,-0.34024,-0.35059,-0.36049,-0.36989,-0.37981,-0.3891,-0.39773,-0.40589,-0.41504,-0.42387,-0.43233,-0.44052,-0.44965,-0.45849,-0.46695
-0.32122,-0.33137,-0.34134,-0.35111,-0.36083,-0.3717,-0.38247,-0.39296,-0.40318,-0.41416,-0.4247,-0.43468,-0.44416,-0.45433,-0.46409,-0.4734,-0.48241,-0.49231,-0.50201,-0.51143,-0.52066,-0.53078,-0.54059,-0.54996,-0.55891,-0.56848,-0.5776,-0.5862,-0.59443,-0.60339,-0.61208,-0.62045,-0.62858,-0.6375,-0.64605,-0.65402,-0.66137,-0.66904,-0.67593,-0.68197,-0.68732,-0.69307,-0.6985,-0.70377,-0.70918,-0.71597,-0.72308,-0.73039,-0.73787,-0.74627,-0.75461,-0.76273,-0.77065,-0.77934,-0.78774,-0.79575,-0.80344,-0.81172,-0.81972,-0.8274,-0.83486,-0.84307,-0.85109,-0.85881,-0.86627,-0.87434,-0.88208,-0.88939,-0.89633,-0.9038,-0.91086,-0.91746,-0.92365,-0.93034,-0.93667,-0.94261,-0.94824,-0.95452,-0.96051,-0.96614,-0.97146,-0.97728,-0.98286,-0.98818,-0.99332,-0.99921,-1.0047,-1.0096,-1.0138,-1.018,-1.0213,-1.024,-1.0261,-1.0288,-1.0315,-1.0342,-1.037,-1.041,-1.0452,-1.0493,-1.0534,-1.0581,-1.0626,-1.067,-1.0712,-1.0762,-1.0812,-1.0859,-1.0903,-1.0952,-1.0996,-1.1034,-1.1067,-1.1102,-1.1132,-1.1156,-1.1176,-1.1202,-1.1224,-1.1242,-1.1258,-1.1279,-1.1297,-1.1313,-1.1327,-1.1347,-1.1366,-1.1382,-1.1395,-1.1412,-1.1426,-1.1438,-1.145,-1.1469,-1.1488,-1.1504,-1.1518,-1.1535,-1.1548,-1.1556,-1.1559,-1.1566,-1.1571,-1.1577,-1.1586,-1.1608,-1.1632,-1.1657,-1.1682,-1.171,-1.1735,-1.1752,-1.1764,-1.1777,-1.178,-1.1772,-1.175,-1.1722,-1.1676,-1.1608,-1.1518,-1.1413,-1.1281,-1.112,-1.093,-1.0722,-1.0482,-1.021,-0.99059,-0.95804,-0.92218,-0.88291,-0.84032,-0.79569,-0.74795,-0.69716,-0.64361,-0.58865,-0.53147,-0.47227,-0.41138,-0.35054,-0.28814,-0.2241,-0.15866,-0.093184,-0.027509,0.037526,0.10089,0.16026,0.21684,0.27073,0.3222,0.37027,0.41736,0.46444,0.51208,0.55951,0.60772,0.65635,0.70469,0.75019,0.79452,0.83767,0.87955,0.91881,0.95689,0.99393,1.0298,1.0628,1.0946,1.1256,1.1555,1.1826,1.2089,1.2344,1.2593,1.2817,1.3034,1.3247,1.3454,1.3636,1.3812,1.3984,1.415,1.4292,1.443,1.4565,1.4697,1.4806,1.4914,1.5023,1.5134,1.5225,1.5316,1.5405,1.5489,1.5546,1.5595,1.564,1.568,1.5697,1.5714,1.5735,1.5762,1.5776,1.5797,1.5825,1.5858,1.5871,1.5886,1.5905,1.5926,1.5929,1.5935,1.5943,1.5954,1.5943,1.5933,1.5923,1.5913,1.5879,1.5845,1.5811,1.5776,1.572,1.5664,1.561,1.5557,1.5484,1.541,1.5335,1.5257,1.5153,1.5044,1.4933,1.482,1.4684,1.4547,1.4411,1.4273,1.4115,1.3953,1.3788,1.3618,1.3421,1.322,1.3022,1.2825,1.2616,1.2412,1.2214,1.2019,1.1806,1.1592,1.1378,1.1159,1.0916,1.0668,1.0417,1.0162,0.98847,0.96066,0.933,0.9055,0.87647,0.84781,0.81973,0.79212,0.76322,0.73486,0.70718,0.6801,0.6519,0.62442,0.59787,0.57218,0.54573,0.52024,0.49586,0.47246,0.44836,0.42525,0.40327,0.3823,0.36071,0.34023,0.32105,0.30307,0.28476,0.26753,0.2514,0.23613,0.22001,0.20475,0.19055,0.17739,0.16389,0.15146,0.1401,0.12958,0.11822,0.10741,0.097146,0.087234,0.076157,0.065364,0.054968,0.044886,0.033755,0.022959,0.012591,0.0025381,-0.0085993,-0.019418,-0.029797,-0.03981,-0.05081,-0.061355,-0.071315,-0.080791,-0.091079,-0.10105,-0.11075,-0.12041,-0.13149,-0.14256,-0.15345,-0.16412,-0.17567,-0.18685,-0.19754,-0.20783,-0.21911,-0.22996,-0.24029,-0.25018,-0.26081,-0.27114,-0.2812,-0.29116,-0.30237,-0.31333,-0.32375,-0.33351,-0.34357,-0.35282,-0.36123,-0.36903,-0.37761,-0.38589,-0.3939,-0.40182,-0.41086,-0.41985,-0.42866,-0.43733,-0.44691,-0.45628,-0.46534,-0.47422,-0.48404,-0.49371,-0.50316,-0.51247,-0.52273,-0.53281,-0.54257,-0.55208,-0.56236,-0.57239,-0.58213,-0.5917,-0.6022,-0.61256,-0.62271,-0.63268,-0.64348,-0.65398,-0.66403,-0.67366,-0.68382,-0.69357,-0.70289,-0.71191,-0.72175,-0.73125,-0.74027,-0.74879,-0.75767,-0.76608,-0.774,-0.78158,-0.78991,-0.7978,-0.80507,-0.81163,-0.8183,-0.82414,-0.82915,-0.83349,-0.83827,-0.84273,-0.84699,-0.85125,-0.85661,-0.86209,-0.86759,-0.87311,-0.87942,-0.88566,-0.89173,-0.89769,-0.90449,-0.91114,-0.91752,-0.92365,-0.93036,-0.93673,-0.94268,-0.94824,-0.95427,-0.95993,-0.96518,-0.9701,-0.97559,-0.98066,-0.9852,-0.98922,-0.99351,-0.99738,-1.0009,-1.0042,-1.0085,-1.0127,-1.0167,-1.0206,-1.0251,-1.0294,-1.0334,-1.037,-1.0413,-1.045,-1.0482,-1.0507,-1.0533,-1.0553,-1.0566,-1.0575,-1.0589,-1.0602,-1.0615,-1.063,-1.0657,-1.0685,-1.0713,-1.0739,-1.077,-1.0798,-1.0824,-1.0848,-1.0882,-1.0917,-1.0951,-1.0985,-1.1026,-1.1066,-1.1102,-1.1135,-1.1173,-1.1206,-1.1234,-1.1258,-1.1287,-1.1311,-1.1329,-1.134,-1.1353,-1.1359,-1.1355,-1.134,-1.1324,-1.1293,-1.1245,-1.1176,-1.1094,-1.099,-1.0863,-1.0712,-1.055,-1.0359,-1.0136,-0.98785,-0.95958,-0.92838,-0.89476,-0.85944,-0.82434,-0.78835,-0.75138,-0.71328,-0.6749,-0.6343,-0.59077,-0.54389,-0.4944,-0.44145,-0.38534,-0.32668,-0.26768,-0.20711,-0.14516,-0.082158,-0.019541,0.043608,0.1071,0.17056,0.23222,0.29336,0.35395,0.41372,0.47106,0.52732,0.5825,0.63639,0.68734,0.73685,0.78502,0.83174,0.87537,0.91761,0.95864,0.99839,1.0353,1.071,1.1056,1.1391,1.1696,1.1991,1.2281,1.2566,1.2828,1.3083,1.3329,1.3563,1.3762,1.3945,1.4115,1.4273,1.4403,1.4529,1.4658,1.4792,1.4916,1.5046,1.5184,1.5325,1.5444,1.5563,1.5683,1.5803,1.5904,1.6005,1.6109,1.6213,1.6297,1.6381,1.6468,1.6555,1.662,1.6684,1.675,1.6814,1.6855,1.6896,1.6937,1.6978,1.6998,1.7018,1.7039,1.706,1.7059,1.7058,1.7059,1.706,1.704,1.7022,1.7006,1.6992,1.6957,1.6922,1.6889,1.6855,1.6798,1.674,1.6682,1.6623,1.6542,1.6459,1.6378,1.6295,1.619,1.6083,1.5978,1.5872,1.5744,1.5614,1.5485,1.5353,1.5196,1.5037,1.4876,1.4711,1.4522,1.433,1.4139,1.3946,1.3731,1.3516,1.3302,1.3085,1.2846,1.2605,1.2361,1.2115,1.1846,1.1575,1.1305,1.1036,1.075,1.0465,1.0183,0.9902,0.96009,0.93013,0.90055,0.87135,0.84093,0.81095,0.78152,0.7525,0.72207,0.69234,0.66373,0.63639,0.60884,0.58299,0.559,0.53667,0.51415,0.49274,0.47217,0.45197,0.43009,0.40833,0.38691,0.36591,0.34403,0.32297,0.30296,0.28395,0.26434,0.24573,0.22819,0.21154,0.19418,0.17766,0.16207,0.14734,0.13199,0.11751,0.10401,0.091332,0.077991,0.065367,0.053485,0.042154,0.029866,0.018011,0.0066634,-0.0042922,-0.016256,-0.027801,-0.038807,-0.049372,-0.060859,-0.071965,-0.082652,-0.093086,-0.10466,-0.11607,-0.12722,-0.13817,-0.15016,-0.16178,-0.17281,-0.18325,-0.19428,-0.20459,-0.21407,-0.22286,-0.23229,-0.24129,-0.24991,-0.25838,-0.26811,-0.27779,-0.28729,-0.29663,-0.30687,-0.31691,-0.32666,-0.33624,-0.34695,-0.35743,-0.36751,-0.37723,-0.3876,-0.39764,-0.40733,-0.41684,-0.42748,-0.43794,-0.44805,-0.45782,-0.46823,-0.47829,-0.48797,-0.49744,-0.50795,-0.51833,-0.52848,-0.53842,-0.5492,-0.55967,-0.56972,-0.5794,-0.58976,-0.59982,-0.60954,-0.61902,-0.62934,-0.63928,-0.64861,-0.65727,-0.66615,-0.67413,-0.68114,-0.68732,-0.69378,-0.69987,-0.7058,-0.71191,-0.71949,-0.72737,-0.73536,-0.74333,-0.75198,-0.76036,-0.76838,-0.77612,-0.78464,-0.79296,-0.80102,-0.8089,-0.81755,-0.82595,-0.834,-0.84169,-0.84988,-0.85765,-0.86491,-0.87174,-0.87909,-0.88609,-0.89271,-0.89906,-0.90609,-0.91282,-0.91912,-0.92502,-0.93133,-0.93728,-0.94287,-0.94824,-0.95443,-0.96041,-0.96609,-0.97146,-0.97728,-0.98283,-0.98814,-0.99332,-0.99932,-1.0051,-1.0104,-1.0152,-1.0201,-1.0242,-1.0275,-1.0302,-1.0332,-1.0359,-1.0385,-1.0411,-1.045,-1.049,-1.0532,-1.0575,-1.0625,-1.0674,-1.0721,-1.0766,-1.0818,-1.0868,-1.0914,-1.0958,-1.1007,-1.1053,-1.1096,-1.1135,-1.118,-1.1222,-1.1261,-1.1299,-1.1344,-1.1387,-1.1426,-1.1463,-1.1504,-1.1541,-1.1573,-1.16,-1.1629,-1.1654,-1.1671,-1.1682,-1.1694,-1.1695,-1.1683,-1.1654,-1.1617,-1.1564,-1.1493,-1.1409,-1.1321,-1.122,-1.1104,-1.0971,-1.0831,-1.0668,-1.0479,-1.0261,-1.0021,-0.97486,-0.94411,-0.90999,-0.87382,-0.83441,-0.79176,-0.74606,-0.69863,-0.64855,-0.59595,-0.54115,-0.48573,-0.42849,-0.36948,-0.30892,-0.24827,-0.18648,-0.12369,-0.060301,0.001996,0.064325,0.12654,0.18832,0.24806,0.30695,0.36497,0.42192,0.4762,0.52931,0.58137,0.63229,0.68062,0.72771,0.77358,0.81807,0.85939,0.89944,0.9385,0.97654,1.0121,1.0464,1.0793,1.1104,1.1378,1.1632,1.1868,1.2088,1.2276,1.2459,1.2646,1.2839,1.3025,1.3212,1.3395,1.3563,1.3688,1.3789,1.3869,1.3932,1.3964,1.3992,1.4025,1.4068,1.4108,1.4161,1.4227,1.4301,1.4355,1.4412,1.4471,1.4533,1.4577,1.4624,1.4674,1.4724,1.4754,1.4784,1.4816,1.4847,1.4856,1.4866,1.4877,1.4888,1.488,1.4872,1.4866,1.4861,1.4834,1.4806,1.4779,1.4751,1.4703,1.4653,1.4606,1.456,1.4495,1.4431,1.4371,1.4314,1.4239,1.4168,1.4102,1.4041,1.3964,1.3891,1.3827
-0.881,-0.88985,-0.89843,-0.90663,-0.91445,-0.92276,-0.93065,-0.93808,-0.94512,-0.95265,-0.95983,-0.96659,-0.97299,-0.97992,-0.98646,-0.9925,-0.99808,-1.004,-1.0095,-1.0144,-1.019,-1.024,-1.0285,-1.0324,-1.0357,-1.0391,-1.0419,-1.044,-1.0455,-1.0474,-1.0489,-1.0501,-1.051,-1.0527,-1.0542,-1.0555,-1.0566,-1.0583,-1.0598,-1.0611,-1.0622,-1.064,-1.0656,-1.0669,-1.0678,-1.069,-1.0699,-1.0703,-1.0706,-1.0714,-1.0722,-1.0728,-1.0733,-1.0746,-1.0757,-1.0767,-1.0775,-1.0789,-1.0801,-1.081,-1.0817,-1.083,-1.0841,-1.085,-1.0859,-1.0876,-1.0893,-1.091,-1.0929,-1.0955,-1.0982,-1.1011,-1.104,-1.1078,-1.1116,-1.115,-1.118,-1.1211,-1.1238,-1.1259,-1.1277,-1.1301,-1.1324,-1.1348,-1.1375,-1.1413,-1.1452,-1.1491,-1.1528,-1.1568,-1.1602,-1.1626,-1.1639,-1.165,-1.1644,-1.1618,-1.157,-1.1507,-1.1418,-1.13,-1.1152,-1.0984,-1.0781,-1.054,-1.026,-0.99483,-0.95941,-0.91957,-0.87543,-0.82837,-0.77711,-0.72165,-0.66217,-0.59997,-0.53423,-0.46517,-0.39316,-0.32019,-0.24449,-0.16601,-0.085129,-0.0033543,0.079094,0.16101,0.24103,0.31633,0.38824,0.45688,0.52258,0.58451,0.64518,0.70564,0.7665,0.8269,0.88782,0.94881,1.009,1.0657,1.1204,1.1731,1.2237,1.2706,1.3152,1.3577,1.3979,1.4339,1.4676,1.4993,1.5289,1.5547,1.5786,1.6007,1.6209,1.6374,1.6522,1.6658,1.6781,1.6873,1.6956,1.7033,1.7101,1.7142,1.7176,1.7205,1.7227,1.7221,1.7211,1.7199,1.7185,1.7149,1.7111,1.7073,1.7031,1.6965,1.6895,1.6824,1.6753,1.666,1.6567,1.6478,1.639,1.6284,1.618,1.6081,1.5986,1.5873,1.5763,1.5657,1.5554,1.5432,1.5312,1.5195,1.508,1.4946,1.4815,1.4688,1.4564,1.4424,1.4286,1.4153,1.4021,1.3869,1.3718,1.3569,1.3421,1.3256,1.3089,1.2922,1.2752,1.2558,1.2361,1.2166,1.1972,1.1761,1.1549,1.1333,1.1108,1.0851,1.0581,1.0299,1.0007,0.96877,0.93679,0.90546,0.87522,0.84482,0.81596,0.78861,0.76232,0.73485,0.70755,0.68014,0.6522,0.62186,0.5909,0.55963,0.52815,0.49525,0.46257,0.43035,0.39853,0.36548,0.333,0.30128,0.2703,0.23862,0.20779,0.17796,0.14903,0.11952,0.091017,0.063699,0.037528,0.011127,-0.013996,-0.037693,-0.06004,-0.082464,-0.10346,-0.12291,-0.14088,-0.15878,-0.17521,-0.1901,-0.2036,-0.21712,-0.22931,-0.24009,-0.2496,-0.25918,-0.2675,-0.27449,-0.28026,-0.28617,-0.29093,-0.29447,-0.29699,-0.29981,-0.30184,-0.30315,-0.30396,-0.30567,-0.30699,-0.30779,-0.30814,-0.30915,-0.30971,-0.30979,-0.30953,-0.31028,-0.31078,-0.31096,-0.31093,-0.31183,-0.31258,-0.31316,-0.31372,-0.31548,-0.31727,-0.31898,-0.32068,-0.32351,-0.32632,-0.32906,-0.33184,-0.33581,-0.33992,-0.34414,-0.34856,-0.35436,-0.36032,-0.36628,-0.37226,-0.3793,-0.38631,-0.39321,-0.40013,-0.40822,-0.41649,-0.42492,-0.43358,-0.44361,-0.45362,-0.46333,-0.47261,-0.48229,-0.49131,-0.49964,-0.50746,-0.51602,-0.52437,-0.5326,-0.54091,-0.55044,-0.56017,-0.57,-0.57994,-0.59093,-0.60187,-0.61261,-0.62314,-0.63444,-0.64544,-0.65606,-0.66635,-0.67735,-0.68801,-0.69826,-0.70817,-0.71872,-0.72898,-0.7389,-0.74859,-0.75903,-0.76927,-0.77925,-0.78901,-0.79947,-0.80955,-0.81908,-0.82804,-0.83729,-0.84594,-0.85395,-0.86149,-0.86955,-0.87733,-0.88483,-0.89215,-0.90022,-0.90793,-0.91502,-0.92142,-0.92783,-0.93342,-0.93819,-0.94233,-0.94691,-0.95116,-0.95516,-0.95906,-0.96381,-0.96848,-0.97294,-0.97718,-0.98189,-0.98627,-0.99025,-0.9939,-0.99814,-1.0019,-1.0052,-1.0078,-1.0107,-1.0129,-1.0147,-1.0162,-1.0183,-1.0202,-1.0218,-1.0232,-1.025,-1.0265,-1.0277,-1.0287,-1.0305,-1.0321,-1.0333,-1.0343,-1.0358,-1.037,-1.0379,-1.0385,-1.0398,-1.0409,-1.0418,-1.0427,-1.0443,-1.0458,-1.0471,-1.0483,-1.0499,-1.0512,-1.052,-1.0524,-1.0533,-1.0536,-1.0533,-1.0524,-1.0519,-1.0511,-1.0503,-1.0497,-1.0503,-1.0513,-1.0525,-1.0538,-1.0559,-1.058,-1.0601,-1.0622,-1.0652,-1.0683,-1.0715,-1.0747,-1.0789,-1.0829,-1.0866,-1.0901,-1.0939,-1.0971,-1.0996,-1.1012,-1.1029,-1.1034,-1.1024,-1.0998,-1.0963,-1.0907,-1.0826,-1.072,-1.0595,-1.0441,-1.0255,-1.0037,-0.97976,-0.95184,-0.91941,-0.8824,-0.84175,-0.7974,-0.75019,-0.7012,-0.65279,-0.60377,-0.55402,-0.50328,-0.45232,-0.39893,-0.34222,-0.28166,-0.21803,-0.15048,-0.079424,-0.0056807,0.068171,0.14342,0.21976,0.29678,0.37287,0.44888,0.52451,0.59924,0.67106,0.74132,0.80993,0.87661,0.93961,1.0004,1.0589,1.115,1.1668,1.2161,1.2629,1.3073,1.3475,1.3852,1.4206,1.4537,1.4826,1.5093,1.534,1.5568,1.5759,1.5933,1.6093,1.6237,1.6348,1.6446,1.6535,1.6613,1.6663,1.6705,1.6739,1.6767,1.6766,1.6758,1.6744,1.6725,1.6679,1.6629,1.6579,1.653,1.6461,1.6393,1.6328,1.6265,1.618,1.6095,1.6013,1.593,1.5827,1.5725,1.5625,1.5526,1.5407,1.529,1.5176,1.5066,1.4938,1.4814,1.4695,1.4578,1.4444,1.4313,1.4186,1.4063,1.3921,1.3783,1.3649,1.3519,1.3372,1.3227,1.3086,1.2948,1.279,1.2634,1.2477,1.232,1.2142,1.1965,1.1792,1.1623,1.1441,1.1265,1.1094,1.0927,1.0742,1.0555,1.0367,1.0174,0.9956,0.97333,0.95086,0.92818,0.90378,0.8792,0.85443,0.82922,0.80159,0.77346,0.74504,0.71632,0.68585,0.65522,0.62453,0.59366,0.56092,0.52806,0.49531,0.46264,0.42863,0.3949,0.36165,0.32884,0.29496,0.26172,0.22934,0.19782,0.16576,0.13478,0.10505,0.076555,0.047845,0.020534,-0.0051907,-0.029376,-0.053403,-0.075839,-0.096593,-0.11579,-0.13492,-0.1525,-0.16839,-0.1827,-0.19678,-0.20936,-0.22039,-0.23009,-0.23991,-0.24853,-0.2559,-0.26214,-0.26861,-0.27403,-0.27833,-0.28166,-0.28537,-0.28822,-0.29018,-0.29141,-0.29323,-0.29451,-0.29524,-0.2956,-0.2969,-0.29784,-0.29832,-0.29838,-0.29918,-0.29964,-0.29978,-0.29978,-0.30099,-0.30213,-0.3031,-0.30396,-0.30577,-0.30752,-0.30919,-0.31093,-0.31405,-0.31724,-0.32037,-0.32347,-0.32756,-0.33168,-0.33584,-0.3402,-0.34603,-0.35203,-0.358,-0.36389,-0.37066,-0.37714,-0.38321,-0.38898,-0.39562,-0.40218,-0.40872,-0.41546,-0.42366,-0.43206,-0.4405,-0.44892,-0.45821,-0.46736,-0.4763,-0.48516,-0.49509,-0.50495,-0.51464,-0.52418,-0.53459,-0.54482,-0.5548,-0.5646,-0.57531,-0.58586,-0.59621,-0.60642,-0.61751,-0.62845,-0.63914,-0.64963,-0.6609,-0.67189,-0.68252,-0.69284,-0.7038,-0.71444,-0.7247,-0.73465,-0.74534,-0.75569,-0.76559,-0.77507,-0.785,-0.79457,-0.80378,-0.8127,-0.8224,-0.8316,-0.84003,-0.84755,-0.85488,-0.8612,-0.86657,-0.87124,-0.87641,-0.8813,-0.88602,-0.89076,-0.89648,-0.90219,-0.90774,-0.91306,-0.91889,-0.92433,-0.92933,-0.93397,-0.9392,-0.94419,-0.94892,-0.95348,-0.95878,-0.96386,-0.9686,-0.97299,-0.97777,-0.98215,-0.98611,-0.98972,-0.99394,-0.99774,-1.001,-1.0037,-1.0065,-1.0088,-1.0106,-1.012,-1.0142,-1.0161,-1.0177,-1.019,-1.0207,-1.0222,-1.0234,-1.0246,-1.0265,-1.0283,-1.0295,-1.0301,-1.0308,-1.0308,-1.03,-1.0287,-1.0279,-1.0269,-1.0257,-1.0246,-1.0243,-1.0241,-1.0237,-1.0232,-1.0231,-1.0228,-1.0223,-1.0218,-1.0222,-1.0226,-1.023,-1.0232,-1.024,-1.0247,-1.0253,-1.026,-1.0276,-1.0294,-1.0311,-1.0329,-1.0355,-1.038,-1.0404,-1.0427,-1.0457,-1.0486,-1.0513,-1.0538,-1.0571,-1.0599,-1.0621,-1.0636,-1.0649,-1.0652,-1.0643,-1.0622,-1.0599,-1.0557,-1.0491,-1.0399,-1.0287,-1.0148,-0.99843,-0.97996,-0.96093,-0.9401,-0.91725,-0.89215,-0.86563,-0.83582,-0.80205,-0.76392,-0.72225,-0.67595,-0.62511,-0.57018,-0.51308,-0.45258,-0.38881,-0.32208,-0.25392,-0.18323,-0.11012,-0.034951,0.040525,0.11745,0.19559,0.27448,0.35219,0.42986,0.50725,0.58391,0.65795,0.73061,0.80175,0.87103,0.93665,1.0001,1.0615,1.1205,1.1756,1.2282,1.2782,1.3254,1.3679,1.4077,1.4451,1.4801,1.5112,1.54,1.5664,1.5902,1.6095,1.6261,1.6406,1.653,1.6617,1.6692,1.6759,1.6822,1.6864,1.6903,1.6942,1.6976,1.6983,1.6984,1.6982,1.6976,1.6946,1.6914,1.6883,1.685,1.6796,1.6743,1.6692,1.6641,1.657,1.6499,1.6431,1.6362,1.6273,1.6184,1.6098,1.6014,1.5911,1.581,1.5715,1.5624,1.5515,1.5409,1.5307,1.5206,1.5083,1.4963,1.4846,1.4732,1.4601,1.4473,1.4351,1.423,1.409,1.3952,1.3818,1.3686,1.3537,1.3392,1.3251,1.3115,1.2962,1.2812,1.2664,1.2515,1.2346,1.2176,1.2005,1.1833,1.164,1.1446,1.1251,1.1052,1.0831,1.0606,1.0378,1.0146,0.98927,0.96358,0.93768,0.91145,0.88315,0.8546,0.82596,0.79716,0.76655,0.73585,0.7052,0.67451,0.64211,0.60983,0.5779,0.54627,0.51342,0.48104,0.44928,0.41804,0.38577,0.35404,0.32299,0.2926,0.26137,0.23123,0.20255,0.17552,0.14883,0.12411,0.10149,0.080736,0.060181,0.040961,0.022855,0.0054699,-0.012973,-0.030862,-0.047971,-0.064221,-0.080667,-0.095973,-0.10998,-0.12276,-0.13576,-0.14738,-0.15743,-0.16597,-0.17428,-0.1813,-0.18721,-0.19245,-0.19866,-0.20495,-0.21159
-0.0998,-0.10164,-0.10305,-0.10387,-0.10412,-0.10503,-0.1055,-0.10561,-0.10557,-0.10688,-0.10812,-0.10912,-0.10989,-0.11155,-0.11301,-0.1143,-0.11566,-0.11852,-0.12166,-0.12501,-0.12863,-0.13369,-0.13884,-0.14389,-0.14882,-0.15473,-0.16034,-0.16554,-0.17044,-0.17629,-0.18203,-0.1877,-0.19351,-0.20078,-0.2083,-0.21596,-0.22378,-0.23283,-0.24192,-0.2509,-0.25982,-0.26984,-0.27971,-0.28933,-0.29874,-0.30912,-0.31931,-0.32927,-0.33911,-0.35002,-0.36088,-0.37163,-0.38236,-0.39417,-0.40587,-0.41731,-0.42849,-0.44044,-0.45194,-0.46284,-0.47318,-0.48405,-0.49438,-0.50416,-0.51355,-0.52368,-0.53356,-0.54313,-0.55247,-0.5626,-0.57233,-0.58146,-0.58995,-0.59876,-0.60675,-0.61385,-0.62023,-0.62699,-0.63342,-0.63971,-0.64618,-0.65408,-0.66233,-0.67077,-0.67933,-0.68876,-0.69801,-0.70688,-0.71537,-0.72443,-0.733,-0.74102,-0.74853,-0.75653,-0.76403,-0.77095,-0.77736,-0.78422,-0.79059,-0.79644,-0.80187,-0.80783,-0.81344,-0.81863,-0.8235,-0.82898,-0.834,-0.83842,-0.84224,-0.84628,-0.84975,-0.85266,-0.85521,-0.85845,-0.86147,-0.86422,-0.86674,-0.86987,-0.87266,-0.87498,-0.87684,-0.87908,-0.8808,-0.88193,-0.8826,-0.88373,-0.88455,-0.88509,-0.88549,-0.88673,-0.8879,-0.88892,-0.88981,-0.89139,-0.89286,-0.89423,-0.89558,-0.89785,-0.90011,-0.90224,-0.90423,-0.90683,-0.90918,-0.91118,-0.91288,-0.91514,-0.91711,-0.91872,-0.92008,-0.92205,-0.92387,-0.92558,-0.92729,-0.92992,-0.93253,-0.93502,-0.93738,-0.9404,-0.94331,-0.9461,-0.94892,-0.95271,-0.95664,-0.96065,-0.96478,-0.96984,-0.97478,-0.97938,-0.98352,-0.9879,-0.9916,-0.99446,-0.99649,-0.99866,-0.99976,-0.99955,-0.99793,-0.99569,-0.9917,-0.98574,-0.97775,-0.96871,-0.95724,-0.94301,-0.92585,-0.90667,-0.8841,-0.85785,-0.82782,-0.7952,-0.75848,-0.71745,-0.67213,-0.62382,-0.57136,-0.51479,-0.45444,-0.392,-0.32618,-0.25704,-0.18486,-0.11128,-0.035173,0.043286,0.12365,0.20401,0.28553,0.36799,0.4509,0.53243,0.61363,0.69424,0.77382,0.8503,0.92534,0.99894,1.0708,1.1392,1.2048,1.2673,1.326,1.3784,1.4265,1.4704,1.5105,1.5455,1.578,1.609,1.6388,1.6664,1.6932,1.7192,1.744,1.765,1.7844,1.8024,1.819,1.8325,1.8447,1.8557,1.8651,1.8709,1.8751,1.878,1.8796,1.8779,1.8754,1.8726,1.8695,1.8642,1.859,1.8541,1.8493,1.8422,1.8352,1.8285,1.8219,1.8133,1.8048,1.7967,1.7887,1.7787,1.7687,1.7592,1.7498,1.7385,1.7274,1.7168,1.7066,1.6944,1.6827,1.6714,1.6604,1.6476,1.6351,1.6231,1.6114,1.5979,1.5847,1.5719,1.5595,1.5453,1.5314,1.5179,1.5047,1.4897,1.4748,1.4602,1.4456,1.4291,1.4125,1.396,1.3793,1.3604,1.3414,1.3222,1.3029,1.2815,1.2598,1.2382,1.2164,1.1925,1.1685,1.1443,1.1198,1.0932,1.0663,1.0391,1.0117,0.98206,0.95218,0.92221,0.89204,0.86005,0.82776,0.79521,0.76229,0.72723,0.69236,0.65829,0.62534,0.59236,0.56098,0.53125,0.5028,0.47367,0.44514,0.41701,0.38891,0.35904,0.32919,0.29969,0.2707,0.24106,0.21235,0.18477,0.15825,0.13121,0.1053,0.080689,0.057337,0.033842,0.011759,-0.0087405,-0.027719,-0.046573,-0.063906,-0.079667,-0.094034,-0.10851,-0.12174,-0.13368,-0.14449,-0.15557,-0.16554,-0.17432,-0.18197,-0.18985,-0.19658,-0.20209,-0.20648,-0.21113,-0.21481,-0.21751,-0.21945,-0.22203,-0.22406,-0.22556,-0.22666,-0.2287,-0.23038,-0.2316,-0.23243,-0.23407,-0.23533,-0.23617,-0.23675,-0.23836,-0.23985,-0.24119,-0.24252,-0.24508,-0.24765,-0.25013,-0.25261,-0.25621,-0.25982,-0.26339,-0.26703,-0.27197,-0.27702,-0.28208,-0.28721,-0.29355,-0.29999,-0.30649,-0.31316,-0.32116,-0.32939,-0.33776,-0.34632,-0.35618,-0.36605,-0.37574,-0.38524,-0.39552,-0.40563,-0.41561,-0.42561,-0.43694,-0.44827,-0.4594,-0.4703,-0.4818,-0.49306,-0.50407,-0.51499,-0.52703,-0.53889,-0.55029,-0.56112,-0.57219,-0.58239,-0.59163,-0.60004,-0.60877,-0.61706,-0.6251,-0.6332,-0.64264,-0.65235,-0.66219,-0.67213,-0.68292,-0.69356,-0.7039,-0.71393,-0.72464,-0.73497,-0.74484,-0.7543,-0.76431,-0.77392,-0.78305,-0.79178,-0.80104,-0.80991,-0.81833,-0.82638,-0.83499,-0.84319,-0.85088,-0.85809,-0.8657,-0.87282,-0.87939,-0.88549,-0.89206,-0.89813,-0.90361,-0.90855,-0.91383,-0.91867,-0.92311,-0.92729,-0.93221,-0.937,-0.9416,-0.94603,-0.95108,-0.95575,-0.95985,-0.96333,-0.96697,-0.96987,-0.97197,-0.97342,-0.97516,-0.97658,-0.97785,-0.97919,-0.98163,-0.98422,-0.9868,-0.98928,-0.99229,-0.995,-0.99734,-0.99937,-1.002,-1.0043,-1.0063,-1.008,-1.0103,-1.0123,-1.0139,-1.0152,-1.017,-1.0186,-1.0199,-1.021,-1.0228,-1.0245,-1.0258,-1.0268,-1.0282,-1.0293,-1.0302,-1.0311,-1.0329,-1.0347,-1.0365,-1.0383,-1.0407,-1.0431,-1.0457,-1.0484,-1.0522,-1.056,-1.0596,-1.0628,-1.0662,-1.0689,-1.0711,-1.0729,-1.0752,-1.0774,-1.0795,-1.0815,-1.0845,-1.0872,-1.0897,-1.0916,-1.0938,-1.0951,-1.0954,-1.0945,-1.0934,-1.0906,-1.0858,-1.0787,-1.0699,-1.0582,-1.0434,-1.0253,-1.005,-0.9811,-0.9533,-0.92153,-0.88685,-0.84797,-0.80472,-0.75718,-0.70673,-0.65213,-0.59341,-0.53085,-0.46604,-0.3979,-0.32662,-0.25261,-0.1775,-0.10038,-0.021484,0.058779,0.13842,0.21911,0.30081,0.38314,0.46442,0.54481,0.62334,0.69886,0.76879,0.83449,0.89614,0.95403,1.0071,1.0581,1.1079,1.1573,1.2053,1.253,1.3002,1.3461,1.3881,1.4278,1.4652,1.5004,1.5318,1.561,1.5886,1.6143,1.6364,1.657,1.676,1.6936,1.7076,1.72,1.7313,1.7412,1.7478,1.7535,1.7585,1.7628,1.7645,1.7657,1.7667,1.7671,1.7649,1.7624,1.7598,1.757,1.7521,1.747,1.742,1.7368,1.7293,1.7216,1.7141,1.7066,1.697,1.6875,1.6782,1.6691,1.6579,1.6468,1.6362,1.6258,1.6136,1.6018,1.5906,1.5797,1.5671,1.5547,1.5426,1.5307,1.5166,1.5027,1.4892,1.4759,1.4609,1.4463,1.4322,1.4182,1.4024,1.3868,1.3714,1.3562,1.3392,1.3223,1.3054,1.2885,1.2694,1.2501,1.2305,1.2106,1.1884,1.1658,1.143,1.1198,1.0944,1.0689,1.0432,1.0175,0.98983,0.9619,0.93368,0.90501,0.87404,0.843,0.81239,0.78247,0.75195,0.72256,0.6944,0.66714,0.63888,0.61091,0.58298,0.5547,0.52414,0.49312,0.46194,0.43072,0.39829,0.36623,0.33477,0.30385,0.2719,0.2407,0.2105,0.18132,0.1518,0.12342,0.096302,0.070312,0.043951,0.018757,-0.0051156,-0.027719,-0.050417,-0.071731,-0.091526,-0.10989,-0.12822,-0.14515,-0.16062,-0.17476,-0.18903,-0.20199,-0.21355,-0.22378,-0.234,-0.24293,-0.25052,-0.25694,-0.26356,-0.26913,-0.2736,-0.27712,-0.281,-0.28398,-0.28601,-0.28721,-0.28888,-0.28987,-0.29021,-0.29009,-0.29085,-0.29133,-0.29152,-0.29154,-0.2926,-0.29347,-0.29406,-0.29442,-0.29572,-0.29685,-0.2978,-0.29874,-0.30093,-0.30332,-0.30591,-0.30884,-0.31327,-0.31797,-0.32274,-0.32758,-0.33345,-0.33926,-0.34496,-0.35064,-0.35753,-0.36443,-0.37124,-0.37803,-0.38585,-0.39373,-0.40166,-0.40975,-0.41921,-0.42873,-0.43808,-0.44723,-0.45703,-0.46653,-0.47572,-0.48471,-0.49473,-0.50444,-0.51361,-0.5222,-0.53105,-0.53924,-0.54678,-0.55391,-0.56188,-0.56976,-0.57762,-0.58563,-0.59487,-0.60427,-0.61368,-0.62311,-0.63342,-0.64363,-0.65362,-0.66348,-0.67421,-0.68479,-0.69513,-0.70528,-0.71617,-0.72681,-0.7371,-0.74709,-0.75771,-0.768,-0.77789,-0.78746,-0.79764,-0.80753,-0.81709,-0.82638,-0.83635,-0.84598,-0.85515,-0.86386,-0.87296,-0.88154,-0.88953,-0.89702,-0.90492,-0.91237,-0.91934,-0.92585,-0.93279,-0.93907,-0.94446,-0.94892,-0.95318,-0.95646,-0.9588,-0.96045,-0.96248,-0.96426,-0.96591,-0.96766,-0.97046,-0.97341,-0.97634,-0.97919,-0.98262,-0.98574,-0.98843,-0.99072,-0.99346,-0.99581,-0.99775,-0.99937,-1.0016,-1.0035,-1.0051,-1.0066,-1.0086,-1.0105,-1.0122,-1.0138,-1.0162,-1.0184,-1.0205,-1.0224,-1.0249,-1.0272,-1.0292,-1.0311,-1.0336,-1.036,-1.038,-1.0397,-1.0419,-1.0438,-1.0455,-1.0469,-1.0491,-1.0513,-1.0535,-1.0556,-1.0585,-1.0612,-1.0637,-1.0657,-1.068,-1.0698,-1.0709,-1.0715,-1.0723,-1.073,-1.0736,-1.0743,-1.0763,-1.0784,-1.0807,-1.083,-1.0859,-1.0886,-1.091,-1.0931,-1.0958,-1.0982,-1.1002,-1.1017,-1.1037,-1.105,-1.1053,-1.1046,-1.1035,-1.1007,-1.0959,-1.0888,-1.0801,-1.0685,-1.0536,-1.0354,-1.0148,-0.99049,-0.96229,-0.93018,-0.89511,-0.85608,-0.81298,-0.76583,-0.71622,-0.6621,-0.60314,-0.5395,-0.47245,-0.40235,-0.33049,-0.25838,-0.18891,-0.12092,-0.054329,0.011205,0.074917,0.13943,0.2059,0.27502,0.34612,0.41983,0.4955,0.572,0.64627,0.71974,0.79216,0.86321,0.93143,0.99797,1.0628,1.1256,1.1844,1.2409,1.2949,1.3461,1.3928,1.4366,1.4778,1.5163,1.5503,1.582,1.6115,1.6388,1.6623,1.6837,1.7033,1.721,1.7347,1.7468,1.7575,1.7671,1.7737,1.7795,1.7845,1.7887,1.79,1.7905,1.7906,1.7902,1.7872,1.7837,1.78,1.7758,1.7689,1.7617,1.7544,1.7469,1.7374,1.7278,1.7186,1.7094,1.6983,1.6872,1.6766,1.6662,1.6539,1.6418,1.6301,1.6186,1.6052,1.592,1.5792,1.5667,1.5524,1.5384,1.5249,1.5119,1.4973,1.4832,1.4699
1.59,1.5735,1.5574,1.542,1.527,1.5101,1.4934,1.4771,1.4608,1.4423,1.4238,1.4054,1.387,1.3665,1.3459,1.3251,1.3039,1.2802,1.2565,1.233,1.2101,1.186,1.1627,1.14,1.1178,1.0937,1.0694,1.0448,1.0194,0.99121,0.96222,0.93264,0.90248,0.87016,0.83752,0.80474,0.77173,0.73668,0.70156,0.6666,0.63176,0.59549,0.55949,0.52393,0.48872,0.45219,0.41627,0.38126,0.34721,0.31268,0.27933,0.2473,0.21647,0.18517,0.15516,0.12664,0.099567,0.07246,0.04696,0.023219,0.0011261,-0.020843,-0.041238,-0.06001,-0.077319,-0.094763,-0.11067,-0.12484,-0.13731,-0.14942,-0.15982,-0.16852,-0.17576,-0.18319,-0.18947,-0.19462,-0.19883,-0.20359,-0.20751,-0.21051,-0.21268,-0.21537,-0.2173,-0.21839,-0.21883,-0.22003,-0.22068,-0.22075,-0.22037,-0.22089,-0.22107,-0.22085,-0.22037,-0.22096,-0.22141,-0.22168,-0.2219,-0.22342,-0.22497,-0.22647,-0.22806,-0.23098,-0.23402,-0.23711,-0.24036,-0.24504,-0.24995,-0.25503,-0.26036,-0.2672,-0.27419,-0.28114,-0.28804,-0.29592,-0.30369,-0.31129,-0.31881,-0.32761,-0.33607,-0.34392,-0.35111,-0.35861,-0.36576,-0.37284,-0.38033,-0.38984,-0.40007,-0.4108,-0.42186,-0.43408,-0.44583,-0.45667,-0.46647,-0.47612,-0.48498,-0.49338,-0.50185,-0.51212,-0.52283,-0.53381,-0.54491,-0.55683,-0.56855,-0.57994,-0.59106,-0.60309,-0.61484,-0.62619,-0.6372,-0.64893,-0.66029,-0.67122,-0.68181,-0.69309,-0.70405,-0.71462,-0.72488,-0.73591,-0.74657,-0.75672,-0.7664,-0.77656,-0.78633,-0.79572,-0.80486,-0.81487,-0.82451,-0.83351,-0.84177,-0.85008,-0.85746,-0.86386,-0.86946,-0.8754,-0.88088,-0.886,-0.89099,-0.89696,-0.90288,-0.90859,-0.91407,-0.92011,-0.92576,-0.9309,-0.9356,-0.94081,-0.94564,-0.95002,-0.95406,-0.95871,-0.96291,-0.96649,-0.96944,-0.97256,-0.97508,-0.97706,-0.97867,-0.98102,-0.98312,-0.98489,-0.98636,-0.98832,-0.98999,-0.99135,-0.99251,-0.99447,-0.99621,-0.9976,-0.99866,-1.0002,-1.0014,-1.0024,-1.0033,-1.005,-1.0067,-1.0082,-1.0094,-1.0112,-1.0127,-1.0136,-1.014,-1.0149,-1.0152,-1.0149,-1.014,-1.0135,-1.0127,-1.0118,-1.011,-1.0114,-1.0121,-1.013,-1.014,-1.016,-1.0179,-1.0198,-1.0217,-1.0246,-1.0276,-1.0307,-1.034,-1.0385,-1.0429,-1.0471,-1.051,-1.0552,-1.0587,-1.0614,-1.0633,-1.0651,-1.0659,-1.0653,-1.0633,-1.0607,-1.056,-1.0487,-1.0387,-1.0263,-1.0107,-0.99178,-0.96944,-0.94521,-0.91656,-0.88271,-0.84331,-0.79911,-0.75007,-0.6972,-0.64182,-0.58674,-0.53093,-0.47447,-0.41725,-0.36031,-0.30102,-0.23822,-0.17115,-0.10038,-0.025095,0.054187,0.13648,0.21876,0.30254,0.38754,0.47333,0.55827,0.64324,0.72792,0.81172,0.89242,0.97149,1.0488,1.124,1.1951,1.2637,1.3298,1.3931,1.4518,1.5074,1.5602,1.61,1.6549,1.6969,1.7363,1.7731,1.8054,1.8353,1.863,1.8884,1.9095,1.9287,1.9462,1.9623,1.9748,1.9861,1.9963,2.0053,2.0109,2.0152,2.0185,2.0207,2.0196,2.0175,2.0148,2.0115,2.0053,1.9989,1.9928,1.9869,1.979,1.9716,1.9645,1.9576,1.9483,1.939,1.9299,1.9207,1.9093,1.898,1.8869,1.8761,1.8632,1.8505,1.8385,1.8269,1.8135,1.8005,1.7881,1.7761,1.7622,1.7485,1.7353,1.7223,1.7073,1.6925,1.6781,1.6639,1.6476,1.6316,1.616,1.6008,1.5837,1.5667,1.55,1.5331,1.5139,1.4948,1.476,1.4577,1.438,1.4189,1.4004,1.3824,1.3624,1.3423,1.3219,1.3009,1.2769,1.2522,1.2268,1.2009,1.1726,1.1439,1.1149,1.0855,1.0537,1.0215,0.98907,0.95631,0.92146,0.88642,0.85141,0.81634,0.7795,0.74278,0.70637,0.67022,0.63263,0.59541,0.55874,0.52255,0.4852,0.44853,0.41278,0.37797,0.34254,0.30831,0.27553,0.24415,0.21262,0.18258,0.15417,0.12725,0.10021,0.074709,0.050931,0.028813,0.006868,-0.013318,-0.031606,-0.048094,-0.064347,-0.078769,-0.091249,-0.10193,-0.11234,-0.12114,-0.12835,-0.13423,-0.1404,-0.14551,-0.14956,-0.15269,-0.15641,-0.15922,-0.16102,-0.16192,-0.16325,-0.16388,-0.16386,-0.16345,-0.16426,-0.16484,-0.16506,-0.16499,-0.16585,-0.16638,-0.16655,-0.16653,-0.16774,-0.1689,-0.16999,-0.17115,-0.17369,-0.17636,-0.17907,-0.18191,-0.18617,-0.19047,-0.19467,-0.19883,-0.20416,-0.20952,-0.21487,-0.22037,-0.22734,-0.23439,-0.24131,-0.24805,-0.2557,-0.26292,-0.26957,-0.27574,-0.28267,-0.28928,-0.29561,-0.30189,-0.30951,-0.31722,-0.32491,-0.33265,-0.34153,-0.35041,-0.35921,-0.36803,-0.37811,-0.38818,-0.39813,-0.40802,-0.41895,-0.4298,-0.44048,-0.45109,-0.46281,-0.47445,-0.48591,-0.49723,-0.5095,-0.52158,-0.53336,-0.54491,-0.55734,-0.56948,-0.58121,-0.5926,-0.6047,-0.61645,-0.62776,-0.63874,-0.65051,-0.66191,-0.67284,-0.68335,-0.69441,-0.70504,-0.71517,-0.72488,-0.73524,-0.74497,-0.75384,-0.76179,-0.76971,-0.77666,-0.78265,-0.78794,-0.79372,-0.79917,-0.80436,-0.80947,-0.81561,-0.82162,-0.82728,-0.83254,-0.83821,-0.8434,-0.84812,-0.85254,-0.85784,-0.86296,-0.86785,-0.87254,-0.8779,-0.88305,-0.88791,-0.89253,-0.89789,-0.90285,-0.90723,-0.91099,-0.91495,-0.9183,-0.92102,-0.92329,-0.92623,-0.92879,-0.93088,-0.93252,-0.93458,-0.93626,-0.93758,-0.93868,-0.9406,-0.94233,-0.94375,-0.94483,-0.94638,-0.94745,-0.94794,-0.94791,-0.94829,-0.94816,-0.94748,-0.94637,-0.94579,-0.94502,-0.94413,-0.94329,-0.94355,-0.94395,-0.94438,-0.94483,-0.94608,-0.94729,-0.94838,-0.94944,-0.95143,-0.95341,-0.95529,-0.95713,-0.95982,-0.96251,-0.96517,-0.9679,-0.97163,-0.97547,-0.97934,-0.98328,-0.98819,-0.993,-0.99753,-1.0017,-1.0065,-1.0107,-1.0142,-1.0171,-1.0203,-1.0226,-1.0236,-1.0233,-1.0222,-1.0192,-1.014,-1.0064,-0.9974,-0.98522,-0.96929,-0.94944,-0.92663,-0.90023,-0.8707,-0.8387,-0.80619,-0.77189,-0.73564,-0.69719,-0.65789,-0.61488,-0.56714,-0.51415,-0.45589,-0.39309,-0.32663,-0.25728,-0.18847,-0.11508,-0.034956,0.053423,0.15061,0.25517,0.36446,0.47487,0.58069,0.68078,0.77303,0.85633,0.92831,0.99373,1.0555,1.1163,1.178,1.2412,1.3052,1.3685,1.4267,1.4822,1.5351,1.5854,1.6322,1.6765,1.7184,1.7577,1.7922,1.8243,1.8543,1.8823,1.9063,1.9285,1.9487,1.9669,1.9806,1.9922,2.002,2.0099,2.0141,2.0173,2.0199,2.0222,2.0223,2.0224,2.0224,2.0222,2.0192,2.0158,2.0122,2.0084,2.0022,1.9959,1.9898,1.9838,1.9754,1.9672,1.9593,1.9515,1.9415,1.9316,1.9222,1.913,1.9018,1.8908,1.8802,1.87,1.8576,1.8455,1.8338,1.8223,1.8087,1.7954,1.7826,1.77,1.7553,1.7409,1.7269,1.7131,1.6971,1.6813,1.6656,1.65,1.6322,1.6146,1.5975,1.5808,1.5625,1.5449,1.528,1.5116,1.4934,1.4753,1.4574,1.4393,1.4187,1.3977,1.3764,1.3547,1.3306,1.3062,1.2814,1.2562,1.2286,1.2005,1.1724,1.144,1.1135,1.0829,1.0521,1.0209,0.98739,0.95355,0.91962,0.88556,0.84971,0.81387,0.77819,0.74251,0.70504,0.66761,0.63038,0.59331,0.5547,0.51654,0.47916,0.44257,0.40535,0.36907,0.33382,0.29952,0.26444,0.23069,0.19874,0.16878,0.13956,0.11267,0.088154,0.065728,0.04356,0.022966,0.0037993,-0.014255,-0.032946,-0.05058,-0.066922,-0.081933,-0.096871,-0.11032,-0.1222,-0.13269,-0.14344,-0.15294,-0.16111,-0.16807,-0.17523,-0.18123,-0.18598,-0.1896,-0.19355,-0.19641,-0.19813,-0.19883,-0.19996,-0.20027,-0.19981,-0.19883,-0.19879,-0.1985,-0.19794,-0.19729,-0.19793,-0.19846,-0.19873,-0.19883,-0.19999,-0.20108,-0.20216,-0.20345,-0.2064,-0.20974,-0.21336,-0.21729,-0.22265,-0.22813,-0.23353,-0.23882,-0.24521,-0.25125,-0.25679,-0.2619,-0.26776,-0.27345,-0.27909,-0.28497,-0.29257,-0.30057,-0.30882,-0.31727,-0.32693,-0.33661,-0.34618,-0.35572,-0.36645,-0.37722,-0.38796,-0.39879,-0.41092,-0.42301,-0.43487,-0.44647,-0.45882,-0.47087,-0.4826,-0.49415,-0.50682,-0.51931,-0.5315,-0.54337,-0.55594,-0.56809,-0.57976,-0.59106,-0.60316,-0.61491,-0.62623,-0.6372,-0.64886,-0.6602,-0.67116,-0.68181,-0.69321,-0.70407,-0.71415,-0.72334,-0.73255,-0.74073,-0.74784,-0.7541,-0.7607,-0.76687,-0.77278,-0.77871,-0.78588,-0.79322,-0.80059,-0.80793,-0.81609,-0.82399,-0.83152,-0.8387,-0.84652,-0.854,-0.86111,-0.86792,-0.87544,-0.88263,-0.88935,-0.89561,-0.90227,-0.90836,-0.9138,-0.91868,-0.92396,-0.92877,-0.93312,-0.93714,-0.94185,-0.94628,-0.95033,-0.95406,-0.95835,-0.96234,-0.966,-0.96944,-0.97362,-0.97762,-0.98135,-0.98482,-0.98888,-0.9924,-0.99517,-0.99713,-0.99903,-1.0001,-1.0004,-1.0002,-1.0006,-1.0007,-1.0005,-1.0002,-1.0006,-1.001,-1.0014,-1.0017,-1.003,-1.0043,-1.0054,-1.0064,-1.0079,-1.0092,-1.0102,-1.011,-1.0124,-1.0137,-1.0147,-1.0156,-1.0171,-1.0187,-1.0202,-1.0217,-1.0243,-1.0271,-1.0298,-1.0325,-1.036,-1.0395,-1.0429,-1.0463,-1.0507,-1.055,-1.0592,-1.0633,-1.0679,-1.0723,-1.0764,-1.0802,-1.0846,-1.0883,-1.091,-1.0925,-1.0935,-1.0931,-1.0912,-1.0879,-1.0843,-1.0792,-1.0723,-1.0633,-1.053,-1.0401,-1.0241,-1.0048,-0.98318,-0.95768,-0.92801,-0.89407,-0.8571,-0.81562,-0.76946,-0.71872,-0.66478,-0.60647,-0.54385,-0.47723,-0.40835,-0.33582,-0.25972,-0.18037,-0.099545,-0.016338,0.068755,0.15494,0.23998,0.32462,0.40828
-1.8317,-1.8396,-1.8468,-1.8528,-1.857,-1.8602,-1.8613,-1.8602,-1.857,-1.8529,-1.8466,-1.8378,-1.8266,-1.8135,-1.7977,-1.7789,-1.7573,-1.7341,-1.7078,-1.6783,-1.6457,-1.6111,-1.5742,-1.5353,-1.4952,-1.4557,-1.4155,-1.3747,-1.3328,-1.2911,-1.2474,-1.2011,-1.1519,-1.1008,-1.0466,-0.98968,-0.93042,-0.87099,-0.80998,-0.74742,-0.68355,-0.61986,-0.55515,-0.48948,-0.42315,-0.35801,-0.29257,-0.22684,-0.16107,-0.097061,-0.033181,0.030652,0.094255,0.15581,0.21693,0.27766,0.33774,0.39516,0.45175,0.50763,0.56263,0.61484,0.66604,0.71633,0.76553,0.81163,0.85674,0.90112,0.94477,0.98563,1.026,1.066,1.1054,1.142,1.1772,1.2109,1.2424,1.269,1.2931,1.3152,1.3354,1.3519,1.3676,1.3828,1.3979,1.4107,1.4235,1.4362,1.4486,1.458,1.4667,1.475,1.4825,1.487,1.4908,1.4938,1.496,1.4947,1.4925,1.4896,1.4858,1.4789,1.4712,1.4628,1.4537,1.4414,1.4282,1.4144,1.3996,1.3816,1.3627,1.3434,1.3235,1.3008,1.2779,1.255,1.2322,1.2072,1.1822,1.1573,1.1325,1.1052,1.0781,1.0517,1.0259,0.99884,0.97302,0.94884,0.92617,0.90277,0.88051,0.85917,0.83824,0.81499,0.79187,0.76918,0.74693,0.72328,0.70037,0.67844,0.65732,0.63474,0.61303,0.59241,0.57277,0.55201,0.53234,0.51394,0.49668,0.47849,0.46141,0.44555,0.43074,0.41481,0.40008,0.38681,0.37494,0.36255,0.35146,0.34161,0.33267,0.32228,0.31257,0.30368,0.29547,0.28605,0.27728,0.26922,0.26165,0.25251,0.24376,0.23557,0.22783,0.21866,0.21013,0.20251,0.19571,0.18791,0.18086,0.17454,0.16865,0.16109,0.15374,0.14673,0.13991,0.1315,0.1233,0.11544,0.10778,0.098458,0.089365,0.080671,0.072274,0.062403,0.05287,0.043807,0.035074,0.024844,0.014923,0.0054238,-0.0038158,-0.014569,-0.025188,-0.035628,-0.046088,-0.058372,-0.070708,-0.082933,-0.095123,-0.10893,-0.1226,-0.13599,-0.14923,-0.16405,-0.17884,-0.19356,-0.20841,-0.22508,-0.24198,-0.25896,-0.27605,-0.29474,-0.31305,-0.33054,-0.34706,-0.36388,-0.37956,-0.39413,-0.40794,-0.42302,-0.4378,-0.45238,-0.46712,-0.48359,-0.50099,-0.51962,-0.53982,-0.56331,-0.58796,-0.61304,-0.63789,-0.66318,-0.68683,-0.70829,-0.72751,-0.74583,-0.76254,-0.77817,-0.79346,-0.81066,-0.82809,-0.84551,-0.86278,-0.88066,-0.89815,-0.91523,-0.93211,-0.95043,-0.96851,-0.98609,-1.0031,-1.0207,-1.0375,-1.0536,-1.0691,-1.0854,-1.1014,-1.1167,-1.1316,-1.1472,-1.1623,-1.1768,-1.1908,-1.2054,-1.2192,-1.2318,-1.2432,-1.2544,-1.2643,-1.2729,-1.2804,-1.2884,-1.296,-1.3034,-1.3109,-1.3198,-1.3289,-1.3378,-1.3464,-1.3554,-1.3636,-1.3708,-1.3768,-1.3829,-1.3876,-1.3907,-1.392,-1.3927,-1.3914,-1.3878,-1.3819,-1.375,-1.3657,-1.3539,-1.3396,-1.3243,-1.3063,-1.2855,-1.2618,-1.2366,-1.2082,-1.1766,-1.1418,-1.1052,-1.0657,-1.0231,-0.97776,-0.93153,-0.88258,-0.83084,-0.77655,-0.72135,-0.66468,-0.60725,-0.54997,-0.4953,-0.44168,-0.38896,-0.33692,-0.28678,-0.23615,-0.18423,-0.13063,-0.076591,-0.020637,0.037066,0.095946,0.15347,0.21134,0.26948,0.3276,0.38378,0.43972,0.49546,0.55079,0.60363,0.65591,0.70769,0.75877,0.80698,0.85431,0.90087,0.94646,0.9889,1.0303,1.0709,1.1105,1.1469,1.1824,1.2171,1.2508,1.2814,1.311,1.3398,1.3675,1.3918,1.4151,1.4375,1.4588,1.4767,1.4936,1.5097,1.5247,1.5363,1.5469,1.5566,1.5653,1.5706,1.5748,1.5782,1.5805,1.5795,1.5778,1.5759,1.5738,1.5693,1.5648,1.5602,1.5552,1.5471,1.5384,1.5293,1.5197,1.5072,1.4943,1.481,1.4672,1.4504,1.4332,1.4157,1.3979,1.3775,1.3569,1.3361,1.3151,1.2912,1.2671,1.243,1.2187,1.192,1.1653,1.1387,1.1122,1.0833,1.0546,1.0265,0.99887,0.96969,0.94105,0.91308,0.88559,0.85619,0.82755,0.80011,0.77399,0.74727,0.72225,0.69912,0.67761,0.65537,0.63428,0.61421,0.59475,0.57343,0.55265,0.5327,0.51359,0.49355,0.47448,0.45644,0.43919,0.4204,0.40244,0.38561,0.36987,0.35341,0.3381,0.32395,0.31069,0.29605,0.28211,0.26901,0.25658,0.24295,0.22994,0.21764,0.20585,0.19255,0.17983,0.16794,0.15682,0.14469,0.13333,0.1228,0.11285,0.10144,0.090527,0.080281,0.070583,0.059708,0.049321,0.039481,0.030002,0.018938,0.0083494,-0.0014881,-0.010579,-0.020547,-0.029741,-0.038153,-0.046088,-0.055531,-0.064847,-0.074032,-0.083287,-0.094395,-0.10553,-0.11647,-0.12725,-0.13944,-0.15141,-0.16306,-0.17459,-0.1878,-0.20098,-0.21401,-0.22701,-0.24157,-0.25606,-0.27034,-0.2845,-0.30017,-0.31561,-0.33064,-0.34537,-0.3613,-0.37701,-0.39249,-0.40794,-0.42508,-0.44217,-0.45899,-0.47557,-0.49329,-0.51073,-0.52786,-0.5449,-0.56346,-0.58209,-0.60069,-0.6193,-0.63927,-0.65883,-0.67759,-0.69538,-0.71341,-0.73014,-0.74547,-0.75964,-0.7742,-0.78816,-0.80177,-0.81544,-0.83088,-0.84656,-0.86229,-0.878,-0.89473,-0.91129,-0.92763,-0.94394,-0.96169,-0.97948,-0.99723,-1.015,-1.0339,-1.0526,-1.0711,-1.0894,-1.1085,-1.1273,-1.1457,-1.1638,-1.1827,-1.2011,-1.2191,-1.2365,-1.2545,-1.2718,-1.2883,-1.3041,-1.3203,-1.3358,-1.3507,-1.365,-1.38,-1.3947,-1.4088,-1.4225,-1.4367,-1.4505,-1.4638,-1.4766,-1.49,-1.5026,-1.514,-1.5239,-1.5333,-1.5409,-1.5468,-1.551,-1.5549,-1.5575,-1.5589,-1.5594,-1.5602,-1.5601,-1.5587,-1.556,-1.553,-1.5482,-1.5413,-1.5324,-1.5224,-1.5102,-1.4955,-1.4783,-1.4599,-1.4389,-1.4151,-1.3886,-1.3607,-1.33,-1.2964,-1.2601,-1.2226,-1.1824,-1.1396,-1.0944,-1.0483,-0.99999,-0.94934,-0.8966,-0.84326,-0.7882,-0.73148,-0.6734,-0.6159,-0.55705,-0.49669,-0.43499,-0.37354,-0.31172,-0.25017,-0.18981,-0.13312,-0.078554,-0.025943,0.024929,0.072759,0.12025,0.16838,0.21769,0.26705,0.31785,0.36983,0.42229,0.4724,0.52211,0.57141,0.62012,0.66645,0.71226,0.75773,0.80273,0.84517,0.88718,0.92889,0.97013,1.0087,1.0466,1.084,1.1206,1.1542,1.187,1.2192,1.2508,1.2795,1.3075,1.3346,1.3607,1.3832,1.4044,1.4246,1.4436,1.4591,1.4734,1.4869,1.4994,1.5084,1.5165,1.5236,1.5298,1.5326,1.5345,1.5358,1.5366,1.5344,1.5317,1.5286,1.5247,1.5177,1.5099,1.5016,1.4926,1.4806,1.4681,1.4552,1.4419,1.4257,1.409,1.392,1.3742,1.3534,1.332,1.3102,1.288,1.2632,1.2381,1.2132,1.1883,1.161,1.1341,1.1076,1.0817,1.0541,1.027,1.0008,0.9752,0.9479,0.92124,0.89543,0.87037,0.84379,0.81818,0.79381,0.77061,0.74647,0.72349,0.70174,0.68099,0.65888,0.63784,0.61816,0.59983,0.5808,0.56321,0.54711,0.53219,0.51613,0.50074,0.48592,0.47132,0.45464,0.4382,0.42231,0.40707,0.39075,0.37539,0.36115,0.34789,0.33338,0.31979,0.30722,0.29547,0.28254,0.27013,0.25819,0.24643,0.23279,0.21933,0.20637,0.19402,0.18056,0.16829,0.15757,0.14836,0.1389,0.1306,0.12322,0.11624,0.10723,0.09822,0.089397,0.080728,0.070635,0.060795,0.051275,0.041838,0.030541,0.019133,0.0077126,-0.0038158,-0.017197,-0.030331,-0.04282,-0.054542,-0.066984,-0.078438,-0.088848,-0.098505,-0.10936,-0.11993,-0.13029,-0.14078,-0.15323,-0.16592,-0.17867,-0.1915,-0.20592,-0.22033,-0.23464,-0.24899,-0.26513,-0.28129,-0.2973,-0.31325,-0.3306,-0.34793,-0.3652,-0.38257,-0.40174,-0.42093,-0.4399,-0.45866,-0.47852,-0.49809,-0.51734,-0.53644,-0.55704,-0.57752,-0.5977,-0.6176,-0.63864,-0.65923,-0.67923,-0.69877,-0.71919,-0.73945,-0.75963,-0.77993,-0.80195,-0.82371,-0.84466,-0.86447,-0.88398,-0.90196,-0.91844,-0.9338,-0.9498,-0.96539,-0.9808,-0.99636,-1.0135,-1.0309,-1.0484,-1.0657,-1.0839,-1.1017,-1.1187,-1.135,-1.1518,-1.1681,-1.1838,-1.1993,-1.2158,-1.2321,-1.248,-1.2635,-1.2796,-1.2951,-1.31,-1.3244,-1.3395,-1.3541,-1.3682,-1.3819,-1.3962,-1.4101,-1.4233,-1.436,-1.4492,-1.4618,-1.4737,-1.485,-1.4968,-1.5078,-1.518,-1.5273,-1.5367,-1.5448,-1.5512,-1.556,-1.5601,-1.5623,-1.5626,-1.5611,-1.5591,-1.5554,-1.5499,-1.5425,-1.5344,-1.5242,-1.5117,-1.4969,-1.4808,-1.4622,-1.441,-1.4174,-1.3927,-1.3653,-1.3353,-1.3024,-1.2681,-1.231,-1.191,-1.1485,-1.105,-1.0592,-1.0111,-0.96085,-0.91015,-0.85768,-0.80347,-0.7478,-0.69238,-0.63582,-0.57812,-0.51953,-0.46177,-0.40333,-0.34417,-0.2845,-0.22599,-0.16725,-0.10833,-0.049469,0.0073179,0.063966,0.12063,0.17711,0.23164,0.28534,0.33782,0.38847,0.4349,0.47898,0.52093,0.56094,0.59747,0.63315,0.66875,0.70466,0.7394,0.77475,0.81067,0.8467,0.88018,0.91331,0.94617,0.97858,1.0086,1.038,1.067,1.0953,1.1205,1.1449,1.1686,1.1916,1.2117,1.231,1.2497,1.2677,1.2827,1.2967,1.3098,1.3218,1.3303,1.3376,1.3438,1.3489,1.3506,1.3513,1.3514,1.3506,1.3468,1.3421,1.3367,1.3303,1.3205,1.3101,1.2992,1.288,1.2745,1.2609,1.2474,1.2339,1.2178,1.2015,1.185,1.168,1.1482,1.1279,1.1075,1.0868,1.0637,1.0407,1.018,0.99549,0.97106,0.94704,0.92366,0.9008,0.87623,0.85221,0.8289,0.80611,0.78162,0.75763,0.73429
